#timestep       power           acc-energy      avg-power       dt              acc-time       
1               121.230000      12.139002       121.230000      0.100132        0.100132       
2               121.230000      24.554894       121.230000      0.102416        0.202548       
3               121.171000      36.945719       121.210206      0.102259        0.304807       
4               121.159000      49.331319       121.197346      0.102226        0.407033       
5               121.088000      61.713536       121.175391      0.102258        0.509291       
6               121.043000      74.083888       121.153264      0.102198        0.611489       
7               120.921000      86.458218       121.119967      0.102334        0.713823       
8               120.920000      98.824465       121.094908      0.102268        0.816091       
9               120.747000      111.171208      121.056170      0.102253        0.918344       
10              120.779000      123.519773      121.028404      0.102241        1.020585       
11              120.779000      135.869788      121.005691      0.102253        1.122838       
12              120.779000      148.226930      120.986760      0.102312        1.225150       
13              135.264000      162.116243      122.090837      0.102683        1.327833       
14              149.679000      177.490372      124.071681      0.102714        1.430547       
15              163.705000      194.293871      126.725075      0.102645        1.533192       
16              183.000000      213.067109      130.254295      0.102586        1.635778       
17              204.820000      234.086557      134.656171      0.102624        1.738402       
18              218.746000      256.532084      139.342972      0.102610        1.841012       
19              232.956000      280.443620      144.286653      0.102644        1.943656       
20              247.187000      305.805995      149.446304      0.102604        2.046260       
21              275.495000      334.076741      155.465662      0.102618        2.148878       
22              275.198000      362.325540      160.924359      0.102649        2.251527       
23              274.727000      390.484508      165.879508      0.102498        2.354025       
24              274.426000      418.634578      170.411979      0.102578        2.456603       
25              274.418000      447.422399      174.671482      0.104905        2.561508       
26              274.521000      475.602803      178.518792      0.102653        2.664161       
27              274.689000      503.802650      182.087120      0.102661        2.766822       
28              275.089000      532.035309      185.413495      0.102631        2.869453       
29              275.154000      560.275465      188.512471      0.102634        2.972087       
30              275.187000      588.507725      191.404545      0.102593        3.074680       
31              275.187000      616.746589      194.110462      0.102617        3.177297       
32              275.084000      644.981211      196.644390      0.102640        3.279937       
33              274.785000      673.179648      199.015020      0.102620        3.382557       
34              274.856000      701.388944      201.248409      0.102633        3.485190       
35              275.024000      730.231261      203.403524      0.104872        3.590062       
36              275.288000      758.479663      205.401087      0.102614        3.692676       
37              275.575000      786.764406      207.298842      0.102639        3.795315       
38              275.721000      815.050899      209.099680      0.102591        3.897906       
39              275.721000      843.327190      210.807555      0.102554        4.000460       
40              275.688000      871.626564      212.430708      0.102650        4.103110       
41              275.552000      899.890759      213.970182      0.102573        4.205683       
42              275.241000      928.126907      215.429141      0.102587        4.308270       
43              274.848000      956.363142      216.813030      0.102734        4.411004       
44              275.251000      984.617932      218.142045      0.102651        4.513655       
45              275.207000      1013.476689     219.437687      0.104862        4.618517       
46              275.758000      1041.809996     220.663364      0.102747        4.721264       
47              276.126000      1070.146874     221.843272      0.102623        4.823887       
48              275.965000      1098.471370     222.970830      0.102638        4.926525       
49              275.997000      1126.795010     224.052863      0.102623        5.029148       
50              276.072000      1155.127727     225.093170      0.102628        5.131776       
51              275.645000      1183.379410     226.083033      0.102493        5.234269       
52              275.597000      1211.670545     227.035418      0.102654        5.336923       
53              275.522000      1239.948470     227.950267      0.102634        5.439557       
54              276.203000      1268.302365     228.844031      0.102656        5.542213       
55              276.203000      1299.792821     229.798642      0.114012        5.656225       
56              276.441000      1328.168937     230.630010      0.102648        5.758873       
57              276.407000      1356.553172     231.431987      0.102690        5.861563       
58              276.068000      1384.872227     232.199702      0.102580        5.964143       
59              275.662000      1413.158457     232.934815      0.102612        6.066755       
60              275.597000      1441.426716     233.644115      0.102571        6.169326       
61              275.370000      1469.687113     234.326870      0.102627        6.271953       
62              275.926000      1498.016712     234.996874      0.102671        6.374624       
63              276.462000      1526.393601     235.653957      0.102643        6.477267       
64              276.706000      1554.782530     236.294058      0.102596        6.579863       
65              276.461000      1583.137752     236.910559      0.102565        6.682428       
66              276.424000      1611.519310     237.508487      0.102674        6.785102       
67              276.426000      1639.891951     238.088435      0.102641        6.887743       
68              276.033000      1668.216525     238.645432      0.102613        6.990356       
69              275.605000      1696.514269     239.180439      0.102675        7.093031       
70              275.635000      1724.803791     239.700402      0.102634        7.195665       
71              275.846000      1753.119383     240.208786      0.102650        7.298315       
72              276.560000      1781.496098     240.712757      0.102606        7.400921       
73              276.854000      1810.632213     241.219475      0.105240        7.506161       
74              276.625000      1839.133164     241.698877      0.103031        7.609192       
75              276.854000      1867.556103     242.166880      0.102664        7.711856       
76              276.761000      1895.947630     242.621018      0.102585        7.814441       
77              276.360000      1924.310457     243.058381      0.102630        7.917071       
78              275.946000      1952.636038     243.479328      0.102649        8.019720       
79              276.156000      1980.977652     243.892210      0.102629        8.122349       
80              275.971000      2009.299728     244.292473      0.102627        8.224976       
81              276.697000      2037.704335     244.691929      0.102656        8.327632       
82              276.979000      2066.121549     245.084867      0.102597        8.430229       
83              277.064000      2094.551086     245.469425      0.102610        8.532839       
84              277.064000      2122.977576     245.844806      0.102599        8.635438       
85              276.287000      2151.363855     246.202740      0.102742        8.738180       
86              275.968000      2179.689486     246.548311      0.102641        8.840821       
87              276.310000      2208.053537     246.889915      0.102653        8.943474       
88              276.170000      2236.384988     247.221966      0.102587        9.046061       
89              276.976000      2264.811589     247.555754      0.102632        9.148693       
90              277.102000      2293.259158     247.883624      0.102661        9.251354       
91              277.038000      2321.700710     248.203602      0.102663        9.354017       
92              276.944000      2350.120426     248.515479      0.102619        9.456636       
93              276.992000      2379.181596     248.827946      0.104917        9.561553       
94              276.446000      2407.553802     249.121245      0.102632        9.664185       
95              276.083000      2435.923263     249.404907      0.102757        9.766942       
96              276.410000      2464.291221     249.685723      0.102630        9.869572       
97              276.287000      2492.645727     249.959485      0.102627        9.972199       
98              276.975000      2521.084966     250.234813      0.102678        10.074877      
99              277.295000      2549.542920     250.507680      0.102627        10.177504      
100             277.421000      2578.007147     250.776295      0.102603        10.280107      
101             277.365000      2606.466460     251.039055      0.102606        10.382713      
102             277.116000      2634.909369     251.294317      0.102639        10.485352      
103             276.916000      2663.947058     251.548015      0.104861        10.590213      
104             276.642000      2692.347955     251.788944      0.102663        10.692876      
105             276.671000      2720.779774     252.025797      0.102764        10.795640      
106             276.468000      2749.163085     252.256047      0.102664        10.898304      
107             277.046000      2777.595208     252.487309      0.102626        11.000930      
108             277.185000      2806.055732     252.715692      0.102677        11.103607      
109             277.146000      2834.496454     252.939411      0.102620        11.206227      
110             277.417000      2862.956942     253.161466      0.102591        11.308818      
111             277.143000      2891.402345     253.377163      0.102638        11.411456      
112             277.017000      2919.827890     253.587840      0.102613        11.514069      
113             276.604000      2949.019294     253.796884      0.105535        11.619604      
114             276.320000      2977.387963     253.994146      0.102666        11.722270      
115             276.531000      3005.760873     254.189696      0.102603        11.824873      
116             277.047000      3034.186726     254.386320      0.102603        11.927476      
117             277.507000      3062.669490     254.583580      0.102638        12.030114      
118             277.958000      3091.190760     254.781264      0.102610        12.132724      
119             277.911000      3119.689144     254.975117      0.102545        12.235269      
120             277.981000      3148.208326     255.166420      0.102594        12.337863      
121             277.882000      3176.742639     255.353915      0.102685        12.440548      
122             277.692000      3205.248834     255.536731      0.102654        12.543202      
123             278.551000      3233.828445     255.723456      0.102601        12.645803      
124             279.161000      3262.499396     255.912272      0.102704        12.748507      
125             279.602000      3291.492446     256.103406      0.103694        12.852201      
126             279.905000      3320.217697     256.291956      0.102625        12.954826      
127             279.941000      3348.968197     256.477964      0.102702        13.057528      
128             280.080000      3377.716449     256.662049      0.102643        13.160171      
129             279.809000      3406.437723     256.841192      0.102646        13.262817      
130             279.172000      3435.080212     257.012611      0.102598        13.365415      
131             279.246000      3463.743418     257.182060      0.102645        13.468060      
132             279.311000      3493.034204     257.353034      0.104868        13.572928      
133             279.646000      3521.724765     257.520280      0.102596        13.675524      
134             279.949000      3550.491204     257.687549      0.102756        13.778280      
135             279.982000      3579.208398     257.852287      0.102568        13.880848      
136             279.949000      3607.942084     258.014477      0.102639        13.983487      
137             280.117000      3636.688531     258.175503      0.102623        14.086110      
138             279.544000      3665.370584     258.330025      0.102603        14.188713      
139             279.177000      3694.016936     258.479704      0.102610        14.291323      
140             278.899000      3722.640340     258.625295      0.102630        14.393953      
141             279.116000      3751.292714     258.770395      0.102654        14.496607      
142             279.538000      3780.625475     258.919640      0.104933        14.601540      
143             280.112000      3809.410904     259.067747      0.102764        14.704304      
144             280.009000      3838.153268     259.212920      0.102648        14.806952      
145             280.295000      3866.921345     259.358046      0.102635        14.909587      
146             280.172000      3895.675398     259.500339      0.102630        15.012217      
147             279.897000      3924.393950     259.638798      0.102604        15.114821      
148             279.322000      3953.071381     259.771594      0.102668        15.217489      
149             279.051000      3981.706199     259.900729      0.102615        15.320104      
150             279.204000      4010.348341     260.029126      0.102585        15.422689      
151             279.509000      4039.045530     260.157947      0.102670        15.525359      
152             280.148000      4068.423811     260.292066      0.104867        15.630226      
153             280.482000      4097.235483     260.423888      0.102722        15.732948      
154             280.280000      4125.998657     260.552566      0.102623        15.835571      
155             280.148000      4154.747165     260.678732      0.102619        15.938190      
156             279.508000      4183.433071     260.799203      0.102630        16.040820      
157             279.447000      4212.114393     260.917761      0.102636        16.143456      
158             279.174000      4240.767417     261.033095      0.102635        16.246091      
159             279.809000      4269.483655     261.150960      0.102628        16.348719      
160             280.247000      4298.243723     261.270081      0.102624        16.451343      
161             280.247000      4327.841169     261.391130      0.105612        16.556955      
162             280.182000      4356.600450     261.506906      0.102645        16.659600      
163             280.364000      4385.377572     261.622376      0.102642        16.762242      
164             280.058000      4414.116564     261.734551      0.102618        16.864860      
165             279.382000      4442.794009     261.841311      0.102646        16.967506      
166             279.513000      4471.751835     261.948556      0.103601        17.071107      
167             279.298000      4500.402224     262.052186      0.102580        17.173687      
168             280.016000      4529.142786     262.158910      0.102639        17.276326      
169             280.384000      4557.917194     262.266531      0.102625        17.378951      
170             280.605000      4586.729435     262.374243      0.102679        17.481630      
171             280.512000      4615.505197     262.480055      0.102583        17.584213      
172             280.359000      4644.266386     262.583757      0.102587        17.686800      
173             280.055000      4672.998909     262.684518      0.102596        17.789396      
174             279.407000      4701.679479     262.780456      0.102648        17.892044      
175             279.108000      4730.324612     262.873579      0.102631        17.994675      
176             279.507000      4759.007341     262.967897      0.102619        18.097294      
177             279.707000      4787.719544     263.062308      0.102651        18.199945      
178             280.050000      4816.446513     263.157517      0.102578        18.302523      
179             280.448000      4845.221319     263.253906      0.102603        18.405126      
180             280.477000      4874.010881     263.349427      0.102645        18.507771      
181             280.210000      4902.755663     263.442365      0.102583        18.610354      
182             280.075000      4931.524127     263.533662      0.102717        18.713071      
183             279.628000      4960.222348     263.621448      0.102630        18.815701      
184             279.582000      4988.925075     263.708060      0.102663        18.918364      
185             279.582000      5017.610748     263.793687      0.102602        19.020966      
186             279.543000      5046.303321     263.878217      0.102641        19.123607      
187             280.276000      5075.053472     263.965705      0.102578        19.226185      
188             280.703000      5103.864828     264.054583      0.102640        19.328825      
189             280.703000      5132.663833     264.142485      0.102596        19.431421      
190             280.291000      5161.436265     264.227346      0.102652        19.534073      
191             280.339000      5190.199607     264.311530      0.102602        19.636675      
192             279.214000      5218.888566     264.389101      0.102749        19.739424      
193             279.750000      5247.599029     264.468552      0.102629        19.842053      
194             279.695000      5276.299931     264.546892      0.102615        19.944668      
195             280.398000      5305.088394     264.628072      0.102670        20.047338      
196             280.421000      5333.878377     264.708539      0.102667        20.150005      
197             280.351000      5362.650239     264.787805      0.102628        20.252633      
198             280.253000      5391.386541     264.865709      0.102537        20.355170      
199             280.306000      5420.150141     264.943157      0.102615        20.457785      
200             279.755000      5449.515744     265.018769      0.104969        20.562754      
201             279.713000      5478.223249     265.091746      0.102632        20.665386      
202             279.816000      5506.968746     265.164580      0.102730        20.768116      
203             280.016000      5535.689707     265.237567      0.102569        20.870685      
204             280.517000      5564.506097     265.312404      0.102726        20.973411      
205             280.550000      5593.308482     265.386628      0.102664        21.076075      
206             280.816000      5622.138737     265.461424      0.102666        21.178741      
207             280.549000      5650.940739     265.534207      0.102663        21.281404      
