#timestep       power           acc-energy      avg-power       dt              acc-time       
1               122.546000      12.273227       122.546000      0.100152        0.100152       
2               122.481000      24.823610       122.513129      0.102468        0.202620       
3               122.417000      37.355438       122.480863      0.102370        0.304990       
4               122.387000      49.873181       122.457291      0.102280        0.407270       
5               122.399000      62.395578       122.445588      0.102308        0.509578       
6               122.417000      74.915287       122.440809      0.102271        0.611849       
7               122.400000      87.434236       122.434964      0.102279        0.714128       
8               122.335000      99.944213       122.422443      0.102260        0.816388       
9               122.199000      112.439916      122.397571      0.102257        0.918645       
10              122.199000      125.176963      122.377336      0.104232        1.022877       
11              122.102000      137.662258      122.352313      0.102253        1.125130       
12              144.615000      152.454348      124.207562      0.102286        1.227416       
13              171.231000      169.981896      127.827273      0.102362        1.329778       
14              198.294000      190.281054      132.864192      0.102369        1.432147       
15              225.126000      213.326303      139.018896      0.102366        1.534513       
16              251.677000      239.082675      146.062488      0.102339        1.636852       
17              278.300000      267.567237      153.844653      0.102352        1.739204       
18              305.132000      298.805735      162.255006      0.102377        1.841581       
19              312.894000      330.850462      170.191004      0.102414        1.943995       
20              358.514000      367.540067      179.609119      0.102338        2.046333       
21              385.057000      406.959508      189.397483      0.102373        2.148706       
22              389.131000      446.807300      198.483280      0.102402        2.251108       
23              389.079000      486.912007      206.828356      0.103076        2.354184       
24              388.956000      526.872180      214.444087      0.102737        2.456921       
25              388.400000      566.635407      221.402668      0.102377        2.559298       
26              388.748000      606.451366      227.841994      0.102421        2.661719       
27              388.940000      646.276877      233.809777      0.102395        2.764114       
28              388.964000      686.093566      239.350550      0.102366        2.866480       
29              388.707000      725.913099      244.504013      0.102441        2.968921       
30              389.107000      765.736255      249.322675      0.102345        3.071266       
31              389.022000      805.616068      253.834961      0.102513        3.173779       
32              389.172000      845.456384      258.063924      0.102372        3.276151       
33              389.245000      885.302616      262.038667      0.102368        3.378519       
34              389.460000      925.165015      265.785417      0.102353        3.480872       
35              389.548000      965.192630      269.334085      0.102754        3.583626       
36              389.256000      1005.991330     272.741830      0.104812        3.688438       
37              389.499000      1045.861616     275.894624      0.102363        3.790801       
38              389.499000      1085.752156     278.883102      0.102415        3.893216       
39              389.804000      1126.538129     281.786133      0.104632        3.997848       
40              389.693000      1166.441912     284.480959      0.102398        4.100246       
41              389.783000      1206.393501     287.049077      0.102497        4.202743       
42              389.978000      1246.325688     289.497200      0.102396        4.305139       
43              390.055000      1286.303985     291.835546      0.102494        4.407633       
44              389.888000      1326.242162     294.062565      0.102435        4.510068       
45              390.198000      1366.212094     296.197551      0.102435        4.612503       
46              390.175000      1406.188645     298.239719      0.102458        4.714961       
47              390.234000      1446.166167     300.196032      0.102445        4.817406       
48              390.432000      1486.168268     302.075194      0.102456        4.919862       
49              390.437000      1527.333993     303.929100      0.105435        5.025297       
50              390.239000      1567.305783     305.653185      0.102429        5.127726       
51              390.006000      1607.250588     307.305050      0.102421        5.230147       
52              390.476000      1647.225568     308.901786      0.102375        5.332522       
53              390.427000      1687.204122     310.437768      0.102397        5.434919       
54              390.338000      1727.163804     311.914942      0.102372        5.537291       
55              390.411000      1767.142671     313.340225      0.102402        5.639693       
56              390.339000      1807.101674     314.712965      0.102370        5.742063       
57              390.491000      1847.086781     316.040623      0.102397        5.844460       
58              390.491000      1887.057830     317.322117      0.102361        5.946821       
59              390.579000      1927.033591     318.561600      0.102350        6.049171       
60              390.609000      1967.042890     319.761234      0.102428        6.151599       
61              390.778000      2007.058166     320.924018      0.102399        6.253998       
62              390.611000      2047.052436     322.046539      0.102389        6.356387       
63              390.795000      2087.055384     323.136115      0.102363        6.458750       
64              390.947000      2127.084448     324.194339      0.102390        6.561140       
65              390.976000      2167.125473     325.220715      0.102413        6.663553       
66              391.113000      2207.170360     326.217844      0.102387        6.765940       
67              390.848000      2247.180297     327.181108      0.102367        6.868307       
68              390.975000      2287.203626     328.117955      0.102368        6.970675       
69              391.079000      2327.239556     329.029233      0.102373        7.073048       
70              390.946000      2367.319340     329.913860      0.102520        7.175568       
71              390.946000      2407.349083     330.772508      0.102392        7.277960       
72              391.006000      2447.375976     331.607978      0.102369        7.380329       
73              390.772000      2487.381259     332.417434      0.102375        7.482704       
74              390.907000      2527.405445     333.206960      0.102388        7.585092       
75              391.037000      2567.449589     333.977313      0.102405        7.687497       
76              391.037000      2607.486695     334.727282      0.102387        7.789884       
77              391.030000      2647.520346     335.457651      0.102380        7.892264       
78              390.940000      2688.384913     336.182881      0.104529        7.996793       
79              391.001000      2728.421070     336.875920      0.102394        8.099187       
80              391.178000      2768.500776     337.554288      0.102459        8.201646       
81              391.094000      2808.545282     338.214447      0.102391        8.304037       
82              391.178000      2848.581568     338.859280      0.102348        8.406385       
83              391.276000      2888.641188     339.489986      0.102382        8.508767       
84              391.305000      2928.704167     340.106045      0.102383        8.611150       
85              391.241000      2968.753552     340.706770      0.102365        8.713515       
86              391.172000      3008.798612     341.292783      0.102372        8.815887       
87              391.236000      3048.845138     341.866006      0.102359        8.918246       
88              391.364000      3088.884806     342.427395      0.102308        9.020554       
89              391.307000      3128.929208     342.975696      0.102335        9.122889       
90              391.404000      3169.002715     343.513164      0.102384        9.225273       
91              391.706000      3209.091474     344.041943      0.102344        9.327617       
92              391.604000      3249.185066     344.558332      0.102383        9.430000       
93              391.575000      3289.280388     345.063375      0.102395        9.532395       
94              391.610000      3329.362847     345.557854      0.102353        9.634748       
95              391.610000      3369.445305     346.041938      0.102353        9.737101       
96              391.713000      3409.560633     346.517285      0.102410        9.839511       
97              391.545000      3449.645836     346.980959      0.102377        9.941888       
98              391.978000      3490.652614     347.449517      0.104615        10.046503      
99              391.745000      3530.762601     347.896396      0.102388        10.148891      
100             391.681000      3570.871519     348.333768      0.102402        10.251293      
101             391.797000      3610.997801     348.763694      0.102416        10.353709      
102             392.016000      3651.130439     349.187176      0.102375        10.456084      
103             391.984000      3691.267248     349.602211      0.102394        10.558478      
104             391.979000      3731.396491     350.009154      0.102376        10.660854      
105             392.008000      3771.537326     350.408717      0.102398        10.763252      
106             392.038000      3811.682801     350.801047      0.102402        10.865654      
107             391.886000      3851.809184     351.184599      0.102393        10.968047      
108             391.821000      3893.391972     351.574029      0.106127        11.074174      
109             391.940000      3933.574444     351.944299      0.102522        11.176696      
110             391.910000      3973.701717     352.307099      0.102389        11.279085      
111             391.805000      4013.801784     352.662282      0.102347        11.381432      
112             391.910000      4053.925529     353.012182      0.102380        11.483812      
113             391.821000      4094.045257     353.355154      0.102393        11.586205      
114             391.851000      4134.164138     353.692348      0.102383        11.688588      
115             391.880000      4174.279326     354.023884      0.102366        11.790954      
116             391.851000      4214.402909     354.349554      0.102395        11.893349      
117             392.312000      4255.698847     354.682596      0.105263        11.998612      
118             392.383000      4295.862386     355.001490      0.102358        12.100970      
119             392.219000      4336.019729     355.313742      0.102385        12.203355      
120             392.190000      4376.179200     355.620595      0.102398        12.305753      
121             391.010000      4416.158018     355.912212      0.102245        12.407998      
122             390.770000      4456.187324     356.197632      0.102437        12.510435      
123             390.459000      4496.156660     356.475696      0.102365        12.612800      
124             390.720000      4536.155838     356.751405      0.102373        12.715173      
125             390.823000      4576.164780     357.023528      0.102371        12.817544      
126             391.076000      4616.200012     357.293346      0.102372        12.919916      
127             390.994000      4656.207300     357.558148      0.102322        13.022238      
128             391.226000      4696.230111     357.820576      0.102301        13.124539      
129             391.261000      4736.320669     358.079628      0.102465        13.227004      
130             392.599000      4776.518881     358.344789      0.102390        13.329394      
131             392.721000      4816.716232     358.606751      0.102356        13.431750      
132             393.010000      4856.958098     358.867033      0.102394        13.534144      
133             392.883000      4897.206996     359.122578      0.102445        13.636589      
134             392.925000      4937.436623     359.374479      0.102385        13.738974      
135             392.464000      4977.610415     359.619191      0.102363        13.841337      
136             392.840000      5017.827410     359.863099      0.102375        13.943712      
137             392.670000      5058.007368     360.102096      0.102325        14.046037      
138             392.418000      5098.187439     360.335964      0.102391        14.148428      
139             392.850000      5138.499349     360.570080      0.102614        14.251042      
140             392.715000      5178.689410     360.799272      0.102339        14.353381      
141             392.450000      5218.871973     361.023451      0.102389        14.455770      
142             392.619000      5259.076158     361.245689      0.102400        14.558170      
143             392.590000      5299.261278     361.464534      0.102359        14.660529      
144             392.734000      5339.476454     361.681424      0.102398        14.762927      
145             392.760000      5379.701362     361.895542      0.102416        14.865343      
146             392.772000      5419.918073     362.106763      0.102392        14.967735      
147             393.036000      5460.177929     362.316991      0.102433        15.070168      
148             392.813000      5500.438119     362.522993      0.102492        15.172660      
149             392.778000      5540.649946     362.725772      0.102378        15.275038      
150             392.655000      5580.828761     362.924931      0.102326        15.377364      
151             392.807000      5621.039235     363.122540      0.102367        15.479731      
152             392.656000      5661.241712     363.316596      0.102386        15.582117      
153             392.824000      5701.460998     363.509214      0.102385        15.684502      
154             392.601000      5741.649599     363.697851      0.102365        15.786867      
155             392.609000      5781.846479     363.884143      0.102384        15.889251      
156             392.778000      5823.018254     364.073507      0.104822        15.994073      
157             392.642000      5863.205556     364.255163      0.102351        16.096424      
158             392.613000      5903.445247     364.434586      0.102492        16.198916      
159             392.677000      5943.649089     364.611969      0.102384        16.301300      
160             392.551000      5983.842779     364.786363      0.102391        16.403691      
161             392.654000      6024.047800     364.959236      0.102393        16.506084      
162             392.618000      6064.234608     365.129694      0.102356        16.608440      
163             392.719000      6104.454924     365.298779      0.102415        16.710855      
164             392.677000      6144.659944     365.465503      0.102387        16.813242      
165             392.513000      6184.849350     365.629221      0.102390        16.915632      
166             392.642000      6225.946796     365.795340      0.104669        17.020301      
167             392.880000      6266.162385     365.957255      0.102361        17.122662      
168             392.976000      6306.424349     366.117961      0.102454        17.225116      
169             393.098000      6346.686625     366.277440      0.102423        17.327539      
170             392.944000      6387.380299     366.435870      0.103561        17.431100      
171             393.079000      6427.649277     366.591541      0.102445        17.533545      
172             392.976000      6467.887268     366.744727      0.102393        17.635938      
173             393.079000      6508.134627     366.896735      0.102390        17.738328      
174             393.098000      6548.368207     367.047049      0.102350        17.840678      
175             393.014000      6588.596727     367.195181      0.102359        17.943037      
176             393.009000      6630.004156     367.345873      0.105360        18.048397      
177             392.982000      6670.237653     367.490475      0.102380        18.150777      
178             393.053000      6710.487459     367.633884      0.102403        18.253180      
179             392.918000      6750.703009     367.774869      0.102351        18.355531      
180             393.010000      6790.942910     367.914852      0.102389        18.457920      
181             393.075000      6831.175709     368.053602      0.102354        18.560274      
182             393.045000      6871.884952     368.192291      0.103574        18.663848      
183             393.080000      6912.130054     368.328072      0.102384        18.766232      
184             393.028000      6952.371405     368.462103      0.102388        18.868620      
185             393.427000      6992.639446     368.596793      0.102352        18.970972      
186             393.189000      7032.895708     368.728802      0.102384        19.073356      
187             393.157000      7073.184472     368.859345      0.102475        19.175831      
188             393.228000      7113.435683     368.988735      0.102361        19.278192      
189             393.469000      7153.751697     369.118159      0.102463        19.380655      
190             393.422000      7194.035356     369.245888      0.102393        19.483048      
191             393.409000      7234.312176     369.372196      0.102379        19.585427      
192             393.486000      7274.600814     369.497603      0.102389        19.687816      
193             393.486000      7314.887091     369.621705      0.102383        19.790199      
194             393.319000      7355.155484     369.743667      0.102381        19.892580      
195             393.193000      7396.296054     369.866362      0.104632        19.997212      
196             393.319000      7436.551860     369.985785      0.102349        20.099561      
197             393.222000      7476.815827     370.103560      0.102395        20.201956      
198             393.086000      7517.059578     370.219442      0.102379        20.304335      
199             393.133000      7557.307749     370.334397      0.102378        20.406713      
200             393.104000      7597.560026     370.448079      0.102396        20.509109      
201             393.183000      7637.864822     370.561148      0.102509        20.611618      
202             393.222000      7678.126429     370.673160      0.102389        20.714007      
203             393.222000      7718.368769     370.784017      0.102340        20.816347      
204             393.463000      7758.637346     370.894974      0.102344        20.918691      
205             393.712000      7799.820409     371.008500      0.104602        21.023293      
206             393.492000      7840.119498     371.117497      0.102414        21.125707      
207             393.645000      7880.430321     371.226169      0.102404        21.228111      
