#timestep       power           acc-energy      avg-power       dt              acc-time       
1               122.928000      12.304232       122.928000      0.100093        0.100093       
2               122.816000      26.166843       122.868639      0.112873        0.212966       
3               122.706000      38.454376       122.816624      0.100138        0.313104       
4               122.530000      50.723918       122.747170      0.100135        0.413239       
5               122.411000      62.982645       122.681594      0.100144        0.513383       
6               122.356000      75.238556       122.628439      0.100166        0.613549       
7               122.186000      87.474751       122.566357      0.100144        0.713693       
8               122.016000      99.693921       122.498634      0.100144        0.813837       
9               121.852000      111.895693      122.427788      0.100136        0.913973       
10              121.753000      124.087308      122.361159      0.100134        1.014107       
11              120.909000      136.193805      122.230663      0.100129        1.114236       
12              120.886000      148.294615      122.119819      0.100101        1.214337       
13              120.856000      160.394959      122.023554      0.100122        1.314459       
14              120.844000      172.495310      121.940059      0.100132        1.414591       
15              120.811000      184.590787      121.865431      0.100119        1.514710       
16              120.797000      196.684499      121.799190      0.100116        1.614826       
17              120.767000      208.774967      121.738934      0.100114        1.714940       
18              120.820000      220.877627      121.688220      0.100171        1.815111       
19              120.754000      232.968967      121.639378      0.100132        1.915243       
20              120.756000      245.057608      121.595498      0.100108        2.015351       
21              127.553000      257.824515      121.877374      0.100091        2.115442       
22              159.336000      273.772456      123.569624      0.100090        2.215532       
23              191.440000      292.933685      126.503240      0.100090        2.315622       
24              223.493000      315.303100      130.521809      0.100090        2.415712       
25              256.101000      340.935993      135.517870      0.100089        2.515801       
26              272.608000      368.221327      140.763253      0.100090        2.615891       
27              319.810000      400.231110      147.361528      0.100090        2.715981       
28              351.925000      435.454932      154.632140      0.100089        2.816070       
29              383.970000      473.886489      162.503597      0.100090        2.916160       
30              415.619000      515.485795      170.902874      0.100090        3.016250       
31              440.827000      559.607728      179.572161      0.100089        3.116339       
32              441.231000      603.770098      187.714476      0.100089        3.216428       
33              441.374000      647.947221      195.369729      0.100090        3.316518       
34              441.024000      692.088873      202.566134      0.100089        3.416607       
35              440.346000      736.162663      209.333608      0.100089        3.516696       
36              440.783000      780.280193      215.738617      0.100089        3.616785       
37              440.783000      824.409183      221.800205      0.100115        3.716900       
38              440.847000      868.552075      227.546448      0.100132        3.817032       
39              440.663000      912.675661      232.994107      0.100130        3.917162       
40              440.692000      956.803473      238.171076      0.100133        4.017295       
41              441.095000      1000.971198     243.105997      0.100132        4.117427       
42              441.468000      1045.176271     247.815448      0.100132        4.217559       
43              441.100000      1089.364787     252.299940      0.100178        4.317737       
44              440.946000      1133.517592     256.575646      0.100132        4.417869       
45              441.592000      1177.735082     260.676145      0.100132        4.518001       
46              441.682000      1221.961584     264.600778      0.100132        4.618133       
47              441.284000      1266.147793     268.350349      0.100131        4.718264       
48              441.401000      1310.346157     271.946548      0.100132        4.818396       
49              441.838000      1354.588280     275.405219      0.100132        4.918528       
50              442.020000      1398.849069     278.729539      0.100133        5.018661       
51              441.866000      1443.094437     281.920788      0.100133        5.118794       
52              441.461000      1487.298810     284.981778      0.100132        5.218926       
53              441.617000      1531.518362     287.930429      0.100131        5.319057       
54              442.139000      1575.791066     290.779815      0.100133        5.419190       
55              441.936000      1620.045653     293.522265      0.100138        5.519328       
56              441.904000      1664.294385     296.166248      0.100132        5.619460       
57              442.308000      1708.599935     298.725658      0.100169        5.719629       
58              442.387000      1752.897030     301.197425      0.100132        5.819761       
59              442.600000      1797.215453     303.589179      0.100132        5.919893       
60              441.902000      1841.463542     305.889734      0.100131        6.020024       
61              442.072000      1885.729538     308.117837      0.100133        6.120157       
62              442.378000      1930.025732     310.279109      0.100132        6.220289       
63              442.171000      1974.301198     312.368622      0.100132        6.320421       
64              441.596000      2018.518647     314.383973      0.100131        6.420552       
65              441.766000      2062.753560     316.340059      0.100132        6.520684       
66              442.104000      2107.022760     318.242108      0.100133        6.620817       
67              442.241000      2151.306120     320.089541      0.100134        6.720951       
68              441.924000      2195.556854     321.878044      0.100132        6.821083       
69              441.460000      2239.761127     323.608084      0.100132        6.921215       
70              441.968000      2284.016709     325.296041      0.100133        7.021348       
71              442.138000      2328.288871     326.938905      0.100132        7.121480       
72              442.446000      2372.591874     328.540480      0.100132        7.221612       
73              442.176000      2416.883317     330.095093      0.100167        7.321779       
74              442.203000      2461.161988     331.607586      0.100132        7.421911       
75              442.695000      2505.500991     333.086724      0.100157        7.522068       
76              442.754000      2549.834835     334.527411      0.100132        7.622200       
77              442.416000      2594.134834     335.926354      0.100132        7.722332       
78              442.613000      2638.454559     337.292004      0.100132        7.822464       
79              442.878000      2682.800819     338.626483      0.100132        7.922596       
80              442.943000      2727.153587     339.928462      0.100132        8.022728       
81              442.575000      2771.469507     341.193805      0.100132        8.122860       
82              442.604000      2815.788331     342.428684      0.100132        8.222992       
83              442.604000      2860.107597     343.633863      0.100133        8.323125       
84              442.913000      2904.457361     344.814050      0.100132        8.423257       
85              443.296000      2948.845033     345.970996      0.100131        8.523388       
86              442.957000      2993.220023     347.097671      0.100179        8.623567       
87              443.264000      3037.612469     348.201669      0.100149        8.723716       
88              443.346000      3082.006477     349.281377      0.100134        8.823850       
89              443.363000      3126.401301     350.337025      0.100132        8.923982       
90              443.222000      3170.782450     351.367691      0.100133        9.024115       
91              443.346000      3215.190645     352.377425      0.100166        9.124281       
92              443.975000      3259.646306     353.371717      0.100131        9.224412       
93              444.117000      3304.117073     354.346198      0.100133        9.324545       
94              443.838000      3348.567449     355.297169      0.100150        9.424695       
95              443.685000      3392.994516     356.226367      0.100132        9.524827       
96              443.560000      3437.409065     357.134931      0.100132        9.624959       
97              443.684000      3481.836032     358.026062      0.100132        9.725091       
98              443.226000      3526.217138     358.894362      0.100132        9.825223       
99              443.252000      3570.601290     359.745413      0.100133        9.925356       
100             443.396000      3615.001192     360.580926      0.100136        10.025492      
101             443.430000      3659.402725     361.400218      0.100132        10.125624      
102             443.775000      3703.839247     362.206851      0.100133        10.225757      
103             443.188000      3748.216991     362.992148      0.100133        10.325890      
104             443.064000      3792.582318     363.761169      0.100133        10.426023      
105             443.436000      3837.006624     364.519466      0.100182        10.526205      
106             443.590000      3881.425065     365.264562      0.100134        10.626339      
107             443.222000      3925.807543     365.992327      0.100136        10.726475      
108             443.806000      3970.247169     366.712009      0.100133        10.826608      
109             444.074000      4014.713631     367.420957      0.100133        10.926741      
110             444.331000      4059.206271     368.119369      0.100134        11.026875      
111             444.146000      4103.679943     368.803540      0.100133        11.127008      
112             443.838000      4148.122773     369.472760      0.100133        11.227141      
113             444.484000      4192.629845     370.135852      0.100132        11.327273      
114             444.365000      4237.125446     370.786287      0.100133        11.427406      
115             443.603000      4281.545188     371.418810      0.100134        11.527540      
116             443.603000      4325.964488     372.040432      0.100133        11.627673      
117             443.910000      4370.414528     372.654061      0.100133        11.727806      
118             443.933000      4414.866871     373.257494      0.100133        11.827939      
119             444.336000      4459.359567     373.854179      0.100133        11.928072      
120             443.571000      4503.775662     374.434561      0.100133        12.028205      
121             443.839000      4548.218149     375.007567      0.100132        12.128337      
122             444.106000      4592.688259     375.573386      0.100134        12.228471      
123             443.800000      4637.127285     376.127523      0.100133        12.328604      
124             443.664000      4681.552248     376.671630      0.100132        12.428736      
125             443.804000      4725.991230     377.208159      0.100132        12.528868      
126             444.669000      4770.517271     377.743043      0.100133        12.629001      
127             444.850000      4815.061436     378.270936      0.100133        12.729134      
128             444.544000      4859.575405     378.788206      0.100134        12.829268      
129             444.073000      4904.061306     379.294031      0.100177        12.929445      
130             444.236000      4948.543990     379.793113      0.100133        13.029578      
131             444.514000      4993.055399     380.286713      0.100135        13.129713      
132             444.549000      5037.569424     380.773096      0.100133        13.229846      
133             444.306000      5082.059117     381.250347      0.100133        13.329979      
134             444.365000      5126.554717     381.720921      0.100133        13.430112      
135             444.620000      5171.075852     382.186417      0.100133        13.530245      
136             444.752000      5215.610204     382.646043      0.100133        13.630378      
137             444.515000      5260.120824     383.097237      0.100133        13.730511      
138             444.753000      5304.655721     383.543625      0.100134        13.830645      
139             445.132000      5349.228124     383.986316      0.100133        13.930778      
140             445.125000      5393.799825     384.422638      0.100133        14.030911      
141             444.818000      5438.341231     384.850606      0.100134        14.131045      
142             444.884000      5482.888801     385.273011      0.100133        14.231178      
143             445.127000      5527.460702     385.691212      0.100133        14.331311      
144             445.562000      5572.075717     386.106623      0.100132        14.431443      
145             445.288000      5616.663740     386.514425      0.100133        14.531576      
146             445.216000      5661.252122     386.916220      0.100150        14.631726      
147             445.321000      5705.858591     387.313334      0.100167        14.731893      
148             445.556000      5750.473895     387.706542      0.100134        14.832027      
149             445.185000      5795.052050     388.091988      0.100134        14.932161      
150             445.187000      5839.629960     388.472309      0.100133        15.032294      
151             445.679000      5884.257135     388.850852      0.100133        15.132427      
152             445.727000      5928.889117     389.224734      0.100133        15.232560      
153             445.402000      5973.488556     389.591610      0.100133        15.332693      
154             445.421000      6018.089897     389.953849      0.100133        15.432826      
155             445.645000      6062.713667     390.312861      0.100133        15.532959      
156             445.615000      6107.334434     390.667082      0.100133        15.633092      
157             445.217000      6151.914903     391.014258      0.100132        15.733224      
158             445.157000      6196.490254     391.356669      0.100134        15.833358      
159             445.371000      6241.086588     391.696119      0.100133        15.933491      
160             445.660000      6285.711861     392.033134      0.100133        16.033624      
161             445.326000      6330.321057     392.364020      0.100172        16.133796      
162             445.250000      6374.904830     392.690224      0.100132        16.233928      
163             445.494000      6419.513481     393.013928      0.100133        16.334061      
164             445.622000      6464.134948     393.334468      0.100133        16.434194      
165             445.841000      6508.777899     393.652448      0.100132        16.534326      
166             445.571000      6553.412083     393.965101      0.100173        16.634499      
167             445.943000      6598.065248     394.276112      0.100132        16.734631      
168             446.060000      6642.731020     394.584125      0.100134        16.834765      
169             446.120000      6687.402354     394.888847      0.100133        16.934898      
170             445.692000      6732.030831     395.187472      0.100133        17.035031      
171             445.774000      6776.687579     395.483217      0.100178        17.135209      
172             445.996000      6821.346050     395.776681      0.100132        17.235341      
173             445.996000      6866.004967     396.066757      0.100133        17.335474      
174             445.593000      6910.631998     396.351241      0.100152        17.435626      
175             445.462000      6955.237890     396.631677      0.100134        17.535760      
176             445.867000      6999.903062     396.911344      0.100176        17.635936      
177             446.004000      7044.560105     397.188491      0.100127        17.736063      
178             446.273000      7089.246759     397.464053      0.100133        17.836196      
179             445.966000      7133.902226     397.734822      0.100132        17.936328      
180             446.300000      7178.591584     398.004441      0.100133        18.036461      
181             446.502000      7223.301169     398.272199      0.100133        18.136594      
182             446.504000      7268.010954     398.537027      0.100133        18.236727      
183             446.332000      7312.703070     398.798020      0.100132        18.336859      
184             446.349000      7357.397334     399.056274      0.100133        18.436992      
185             447.044000      7402.161191     399.315492      0.100133        18.537125      
186             447.121000      7446.932758     399.572338      0.100133        18.637258      
187             446.877000      7491.679893     399.825135      0.100133        18.737391      
188             446.723000      7536.411607     400.074426      0.100133        18.837524      
189             446.634000      7581.133963     400.320608      0.100132        18.937656      
190             446.698000      7625.863174     400.564539      0.100133        19.037789      
191             446.240000      7670.546524     400.803521      0.100133        19.137922      
192             446.208000      7715.227115     401.039851      0.100134        19.238056      
193             446.271000      7759.913123     401.274055      0.100132        19.338188      
194             446.425000      7804.614998     401.506642      0.100133        19.438321      
195             446.425000      7849.317765     401.736850      0.100135        19.538456      
196             446.377000      7894.014387     401.964458      0.100132        19.638588      
197             445.940000      7938.667697     402.187543      0.100133        19.738721      
198             446.104000      7983.346351     402.409247      0.100153        19.838874      
199             446.206000      8028.026296     402.629193      0.100133        19.939007      
200             446.360000      8072.721216     402.847708      0.100132        20.039139      
201             445.927000      8117.373670     403.061901      0.100134        20.139273      
202             446.141000      8162.047107     403.275032      0.100133        20.239406      
203             446.788000      8206.797393     403.489307      0.100160        20.339566      
204             447.050000      8251.569003     403.702743      0.100149        20.439715      
205             446.847000      8296.313134     403.913073      0.100133        20.539848      
206             446.817000      8341.053814     404.121216      0.100132        20.639980      
207             446.728000      8385.786475     404.326923      0.100134        20.740114      
