#timestep       power           acc-energy      avg-power       dt              acc-time       
1               121.372000      12.155527       121.372000      0.100151        0.100151       
2               121.372000      26.155181       121.372000      0.115345        0.215496       
3               121.319000      38.301517       121.355187      0.100119        0.315615       
4               121.262000      50.443118       121.332744      0.100127        0.415742       
5               121.089000      62.569212       121.285429      0.100142        0.515884       
6               120.924000      74.680839       121.226666      0.100159        0.616043       
7               120.860000      86.785935       121.175390      0.100158        0.716201       
8               120.747000      98.879592       121.122831      0.100157        0.816358       
9               120.545000      110.953259      121.059685      0.100159        0.916517       
10              120.498000      123.022098      121.004350      0.100158        1.016675       
11              119.732000      135.014215      120.890245      0.100158        1.116833       
12              119.765000      147.009519      120.797639      0.100157        1.216990       
13              119.654000      158.993944      120.710674      0.100159        1.317149       
14              119.699000      170.982995      120.639180      0.100160        1.417309       
15              119.778000      182.982835      120.582325      0.100184        1.517493       
16              119.771000      194.970834      120.532123      0.100091        1.617584       
17              119.745000      206.962457      120.486234      0.100143        1.717727       
18              119.733000      218.954915      120.444733      0.100160        1.817887       
19              119.771000      230.951058      120.409551      0.100159        1.918046       
20              119.766000      242.954965      120.377592      0.100228        2.018274       
21              119.760000      254.948569      120.348396      0.100147        2.118421       
22              145.242000      269.492522      121.471985      0.100136        2.218557       
23              176.067000      287.123167      123.829747      0.100136        2.318693       
24              196.636000      306.812527      126.843676      0.100131        2.418824       
25              233.493000      330.201521      131.084679      0.100170        2.518994       
26              262.713000      356.507761      136.117020      0.100133        2.619127       
27              291.959000      385.742492      141.855686      0.100133        2.719260       
28              302.886000      416.070770      147.574696      0.100131        2.819391       
29              329.476000      449.061531      153.813375      0.100131        2.919522       
30              355.928000      484.700958      160.515449      0.100131        3.019653       
31              408.842000      525.639125      168.485689      0.100132        3.119785       
32              410.093000      566.702147      175.999047      0.100131        3.219916       
33              411.239000      607.880331      183.093838      0.100132        3.320048       
34              412.286000      649.162940      189.803791      0.100131        3.420179       
35              412.320000      690.449367      196.133059      0.100132        3.520311       
36              412.428000      731.746195      202.115155      0.100131        3.620442       
37              412.522000      773.053260      207.777900      0.100133        3.720575       
38              412.653000      814.373030      213.147208      0.100132        3.820707       
39              412.719000      855.699409      218.243955      0.100132        3.920839       
40              412.731000      897.026577      223.087110      0.100131        4.020970       
41              412.846000      938.365673      227.697755      0.100132        4.121102       
42              412.935000      979.713267      232.091729      0.100131        4.221233       
43              412.910000      1021.075701     236.283214      0.100173        4.321406       
44              412.876000      1062.417387     240.282370      0.100131        4.421537       
45              412.900000      1103.762303     244.105011      0.100133        4.521670       
46              412.897000      1145.103202     247.761627      0.100124        4.621794       
47              413.000000      1186.450284     251.265015      0.100114        4.721908       
48              413.082000      1227.813011     254.625223      0.100132        4.822040       
49              413.082000      1269.179043     257.848970      0.100140        4.922180       
50              413.094000      1310.542971     260.944157      0.100132        5.022312       
51              413.241000      1351.921619     263.921210      0.100132        5.122444       
52              413.241000      1393.300267     266.784105      0.100132        5.222576       
53              413.300000      1434.684822     269.540396      0.100132        5.322708       
54              413.514000      1476.090806     272.198849      0.100132        5.422840       
55              413.569000      1517.501884     274.761878      0.100131        5.522971       
56              413.633000      1558.919783     277.234791      0.100132        5.623103       
57              413.702000      1600.353279     279.622872      0.100153        5.723256       
58              413.693000      1641.777187     281.928181      0.100132        5.823388       
59              413.744000      1683.206201     284.156414      0.100132        5.923520       
60              413.569000      1724.617279     286.307636      0.100131        6.023651       
61              413.702000      1766.042087     288.390703      0.100132        6.123783       
62              411.980000      1807.295293     290.379080      0.100134        6.223917       
63              412.104000      1848.560090     292.306415      0.100132        6.324049       
64              411.990000      1889.813473     294.171891      0.100132        6.424181       
65              412.128000      1931.081086     295.982242      0.100133        6.524314       
66              412.102000      1972.345684     297.737454      0.100132        6.624446       
67              412.168000      2013.616478     299.441359      0.100131        6.724577       
68              412.243000      2054.895606     301.096399      0.100133        6.824710       
69              412.374000      2096.184965     302.705359      0.100126        6.924836       
70              412.679000      2137.513529     304.273125      0.100147        7.024983       
71              412.608000      2178.828793     305.795597      0.100132        7.125115       
72              412.814000      2220.165510     307.278754      0.100134        7.225249       
73              414.502000      2261.670424     308.744409      0.100132        7.325381       
74              414.502000      2303.175339     310.170535      0.100132        7.425513       
75              414.470000      2344.689897     311.558709      0.100163        7.525676       
76              414.545000      2386.198703     312.910975      0.100131        7.625807       
77              414.447000      2427.698524     314.226945      0.100133        7.725940       
78              414.513000      2469.207027     315.510148      0.100138        7.826078       
79              414.575000      2510.718836     316.761624      0.100131        7.926209       
80              414.486000      2552.222563     317.980789      0.100133        8.026342       
81              414.688000      2593.746102     319.172387      0.100132        8.126474       
82              414.791000      2635.280369     320.336242      0.100133        8.226607       
83              414.739000      2676.796987     321.471144      0.100103        8.326710       
84              414.828000      2718.334544     322.580457      0.100132        8.426842       
85              414.769000      2759.881540     323.663420      0.100169        8.527011       
86              414.617000      2801.417871     324.719584      0.100180        8.627191       
87              414.671000      2842.939708     325.751632      0.100132        8.727323       
88              414.721000      2884.466551     326.760833      0.100132        8.827455       
89              414.673000      2925.988173     327.746848      0.100131        8.927586       
90              414.706000      2967.513514     328.711366      0.100132        9.027718       
91              414.465000      3009.015138     329.652088      0.100133        9.127851       
92              414.597000      3050.529980     330.573826      0.100133        9.227984       
93              414.562000      3092.040487     331.475382      0.100131        9.328115       
94              414.662000      3133.561837     332.358869      0.100133        9.428248       
95              414.711000      3175.087679     333.224292      0.100132        9.528380       
96              414.830000      3216.625852     334.072961      0.100133        9.628513       
97              415.018000      3258.182434     334.906088      0.100132        9.728645       
98              414.887000      3299.726314     335.720912      0.100133        9.828778       
99              414.980000      3341.279091     336.520231      0.100132        9.928910       
100             415.126000      3382.846488     337.305047      0.100132        10.029042      
101             415.198000      3424.428983     338.075203      0.100151        10.129193      
102             415.416000      3466.026249     338.832286      0.100134        10.229327      
103             415.324000      3507.613887     339.573791      0.100133        10.329460      
104             415.343000      3549.203012     340.301232      0.100132        10.429592      
105             415.394000      3590.797659     341.015331      0.100133        10.529725      
106             415.441000      3632.396598     341.716412      0.100132        10.629857      
107             415.465000      3673.998354     342.404639      0.100133        10.729990      
108             415.496000      3715.603215     343.080426      0.100133        10.830123      
109             415.718000      3757.226564     343.745806      0.100124        10.930247      
110             415.623000      3798.844142     344.398302      0.100133        11.030380      
111             415.492000      3840.448603     345.037879      0.100133        11.130513      
112             415.248000      3882.028631     345.663876      0.100133        11.230646      
113             415.273000      3923.611162     346.279030      0.100133        11.330779      
114             415.258000      3965.205064     346.883460      0.100164        11.430943      
115             415.253000      4006.798051     347.477341      0.100163        11.531106      
116             414.937000      4048.347352     348.058105      0.100134        11.631240      
117             414.902000      4089.892734     348.628650      0.100133        11.731373      
118             414.959000      4131.443824     349.190021      0.100133        11.831506      
119             414.926000      4172.991194     349.741686      0.100132        11.931638      
120             414.926000      4214.538149     350.284164      0.100131        12.031769      
121             414.942000      4256.087536     350.817830      0.100133        12.131902      
122             415.117000      4297.649466     351.344129      0.100121        12.232023      
123             415.279000      4339.233428     351.863269      0.100135        12.332158      
124             415.343000      4380.822969     352.374552      0.100133        12.432291      
125             415.389000      4422.413793     352.877992      0.100125        12.532416      
126             415.760000      4464.042594     353.376402      0.100127        12.632543      
127             415.897000      4505.688024     353.868085      0.100134        12.732677      
128             416.028000      4547.348236     354.353136      0.100138        12.832815      
129             416.019000      4589.022939     354.830781      0.100175        12.932990      
130             416.061000      4630.697690     355.301359      0.100165        13.033155      
131             416.038000      4672.369720     355.764580      0.100164        13.133319      
132             416.167000      4714.041354     356.221620      0.100132        13.233451      
133             416.018000      4755.698484     356.670681      0.100133        13.333584      
134             415.999000      4797.353712     357.112906      0.100133        13.433717      
135             415.995000      4839.008123     357.548553      0.100132        13.533849      
136             416.003000      4880.665000     357.977877      0.100136        13.633985      
137             415.994000      4922.319311     358.400858      0.100132        13.734117      
138             415.994000      4963.974454     358.817724      0.100134        13.834251      
139             415.955000      5005.626940     359.228331      0.100137        13.934388      
140             416.108000      5047.293499     359.634158      0.100134        14.034522      
141             416.275000      5088.976363     360.035414      0.100133        14.134655      
142             416.200000      5130.652134     360.430501      0.100134        14.234789      
143             416.233000      5172.335788     360.820342      0.100145        14.334934      
144             416.362000      5214.027780     361.205626      0.100134        14.435068      
145             416.149000      5255.698028     361.584131      0.100133        14.535201      
146             416.352000      5297.398595     361.958935      0.100157        14.635358      
147             416.297000      5339.100731     362.328332      0.100174        14.735532      
148             416.351000      5380.790789     362.692953      0.100132        14.835664      
149             416.252000      5422.471351     363.052025      0.100133        14.935797      
150             416.197000      5464.145989     363.405945      0.100132        15.035929      
151             416.170000      5505.818339     363.755007      0.100133        15.136062      
152             416.213000      5547.494996     364.099763      0.100133        15.236195      
153             416.207000      5589.170635     364.439975      0.100132        15.336327      
154             415.958000      5630.821757     364.774162      0.100133        15.436460      
155             416.235000      5672.533499     365.106086      0.100212        15.536672      
156             416.154000      5714.208409     365.433012      0.100143        15.636815      
157             416.154000      5755.877909     365.755737      0.100130        15.736945      
158             416.111000      5797.546849     366.074136      0.100139        15.837084      
159             416.253000      5839.237084     366.389481      0.100156        15.937240      
160             416.357000      5880.938985     366.701545      0.100159        16.037399      
161             416.252000      5922.629953     367.009080      0.100158        16.137557      
162             416.316000      5964.327747     367.313220      0.100159        16.237716      
163             416.366000      6006.030549     367.613937      0.100159        16.337875      
164             416.535000      6047.749862     367.912016      0.100158        16.438033      
165             415.953000      6089.411714     368.202966      0.100160        16.538193      
166             416.013000      6131.073336     368.490731      0.100145        16.638338      
167             416.022000      6172.732115     368.775082      0.100136        16.738474      
168             416.082000      6214.396070     369.056401      0.100134        16.838608      
169             416.092000      6256.060610     369.334451      0.100133        16.938741      
170             415.968000      6297.713150     369.608507      0.100134        17.038875      
171             416.109000      6339.413513     369.880403      0.100215        17.139090      
172             416.039000      6381.073163     370.148515      0.100134        17.239224      
173             416.116000      6422.740522     370.413975      0.100134        17.339358      
174             416.211000      6464.417395     370.676932      0.100134        17.439492      
175             416.862000      6506.159037     370.940601      0.100133        17.539625      
176             416.651000      6547.879968     371.200081      0.100134        17.639759      
177             416.627000      6589.598496     371.456496      0.100134        17.739893      
178             416.659000      6631.319812     371.710210      0.100133        17.840026      
179             416.692000      6673.044849     371.961278      0.100134        17.940160      
180             416.681000      6714.768367     372.209496      0.100133        18.040293      
181             416.681000      6756.491886     372.454974      0.100133        18.140426      
182             416.591000      6798.207226     372.697267      0.100135        18.240561      
183             416.588000      6839.921432     372.936893      0.100133        18.340694      
184             413.614000      6881.337843     373.157768      0.100133        18.440827      
185             413.516000      6922.744440     373.375728      0.100133        18.540960      
186             413.516000      6964.151451     373.591349      0.100134        18.641094      
187             413.750000      7005.581894     373.805916      0.100134        18.741228      
188             414.100000      7047.048211     374.020066      0.100136        18.841364      
189             413.778000      7088.481872     374.230248      0.100135        18.941499      
190             413.877000      7129.924617     374.438736      0.100133        19.041632      
191             413.472000      7171.327222     374.642926      0.100134        19.141766      
192             413.712000      7212.753860     374.846240      0.100134        19.241900      
193             413.810000      7254.189897     375.047954      0.100133        19.342033      
194             414.061000      7295.651481     375.248885      0.100134        19.442167      
195             413.976000      7337.104553     375.447321      0.100134        19.542301      
196             416.615000      7378.821880     375.657187      0.100134        19.642435      
197             416.705000      7420.547802     375.865379      0.100133        19.742568      
198             416.735000      7462.277144     376.071623      0.100134        19.842702      
199             416.700000      7504.002565     376.275618      0.100133        19.942835      
200             416.680000      7545.726400     376.477477      0.100134        20.042969      
201             416.834000      7587.466490     376.678099      0.100136        20.143105      
202             416.904000      7629.221093     376.877117      0.100154        20.243259      
203             416.972000      7670.980422     377.074501      0.100149        20.343408      
204             417.050000      7712.741307     377.270304      0.100134        20.443542      
205             416.976000      7754.494781     377.463838      0.100134        20.543676      
206             417.050000      7796.255666     377.655853      0.100134        20.643810      
207             417.100000      7838.021557     377.846255      0.100134        20.743944      
