#timestep       power           acc-energy      avg-power       dt              acc-time       
1               119.662000      11.983671       119.662000      0.100146        0.100146       
2               119.662000      24.855951       119.662000      0.107572        0.207718       
3               119.635000      36.835722       119.653218      0.100136        0.307854       
4               119.426000      48.794444       119.597450      0.100135        0.407989       
5               119.390000      60.749562       119.556569      0.100135        0.508124       
6               119.157000      72.681348       119.490789      0.100135        0.608259       
7               119.125000      84.610168       119.439082      0.100137        0.708396       
8               119.053000      96.531421       119.391267      0.100134        0.808530       
9               118.923000      108.439657      119.339665      0.100134        0.908664       
10              118.858000      120.341265      119.291855      0.100133        1.008797       
11              118.759000      132.233316      119.243738      0.100136        1.108933       
12              118.720000      144.121106      119.200363      0.100133        1.209066       
13              118.623000      155.996929      119.156212      0.100114        1.309180       
14              118.597000      167.870979      119.116483      0.100121        1.409301       
15              118.721000      179.781426      119.090201      0.100323        1.509624       
16              118.636000      191.660567      119.061949      0.100131        1.609755       
17              118.673000      203.543532      119.039172      0.100132        1.709887       
18              118.648000      215.423994      119.017532      0.100132        1.810019       
19              118.713000      227.313694      119.001564      0.100155        1.910174       
20              118.619000      239.191252      118.982509      0.100132        2.010306       
21              118.678000      251.079227      118.968056      0.100170        2.110476       
22              139.982000      265.097865      119.920034      0.100146        2.210622       
23              158.363000      280.960295      121.586410      0.100165        2.310787       
24              184.741000      299.460813      124.209667      0.100143        2.410930       
25              199.037000      319.391781      127.193651      0.100137        2.511067       
26              219.791000      341.400992      130.744665      0.100137        2.611204       
27              252.856000      366.719969      135.254343      0.100132        2.711336       
28              275.809000      394.337552      140.260324      0.100133        2.811469       
29              298.600000      424.236967      145.705736      0.100132        2.911601       
30              321.629000      456.442000      151.554654      0.100131        3.011732       
31              324.052000      488.889975      157.105187      0.100132        3.111864       
32              344.811000      523.416935      162.956857      0.100133        3.211997       
33              346.723000      558.135002      168.512459      0.100132        3.312129       
34              346.806000      592.872132      173.746013      0.100163        3.412292       
35              347.910000      627.709752      178.711168      0.100134        3.512426       
36              347.976000      662.561636      183.403902      0.100156        3.612582       
37              348.040000      697.411577      187.844142      0.100132        3.712714       
38              348.096000      732.267126      192.052636      0.100132        3.812846       
39              348.161000      767.129183      196.047405      0.100132        3.912978       
40              348.250000      802.000152      199.845046      0.100132        4.013110       
41              348.283000      836.859798      203.457113      0.100090        4.113200       
42              348.349000      871.735803      206.900073      0.100118        4.213318       
43              348.458000      906.639098      210.187243      0.100165        4.313483       
44              348.562000      941.535732      213.326071      0.100116        4.413599       
45              348.632000      976.433795      216.326741      0.100100        4.513699       
46              348.665000      1011.346667     219.198850      0.100133        4.613832       
47              348.700000      1046.263044     221.949684      0.100133        4.713965       
48              348.698000      1081.180965     224.586172      0.100138        4.814103       
49              348.728000      1116.100494     227.115724      0.100134        4.914237       
50              348.728000      1151.019675     229.544225      0.100133        5.014370       
51              348.733000      1185.939356     231.877732      0.100133        5.114503       
52              348.728000      1220.858537     234.121526      0.100133        5.214636       
53              348.757000      1255.780622     236.281318      0.100133        5.314769       
54              348.787000      1290.705711     238.361786      0.100133        5.414902       
55              348.820000      1325.633755     240.367286      0.100132        5.515034       
56              348.820000      1360.561799     242.301260      0.100132        5.615166       
57              348.790000      1395.486491     244.166924      0.100131        5.715297       
58              348.882000      1430.422139     245.970014      0.100136        5.815433       
59              348.870000      1465.360074     247.712028      0.100146        5.915579       
60              348.912000      1500.300470     249.396659      0.100141        6.015720       
61              349.005000      1535.243898     251.027356      0.100123        6.115843       
62              349.006000      1570.191265     252.605707      0.100134        6.215977       
63              349.071000      1605.141300     254.134878      0.100123        6.316100       
64              349.068000      1640.094875     255.616437      0.100134        6.416234       
65              349.068000      1675.047752     257.052436      0.100132        6.516366       
66              349.001000      1709.994270     258.443970      0.100133        6.616499       
67              349.066000      1744.947295     259.794983      0.100133        6.716632       
68              349.031000      1779.899260     261.105881      0.100140        6.816772       
69              349.132000      1814.858894     262.380197      0.100133        6.916905       
70              349.099000      1849.814875     263.617660      0.100132        7.017037       
71              349.133000      1884.774610     264.820794      0.100133        7.117170       
72              349.150000      1919.730810     265.990606      0.100118        7.217288       
73              349.164000      1954.692252     267.128722      0.100129        7.317417       
74              349.227000      1989.650922     268.236678      0.100103        7.417520       
75              349.227000      2024.620419     269.315456      0.100134        7.517654       
76              349.363000      2059.602136     270.367621      0.100130        7.617784       
77              349.363000      2094.584552     271.392504      0.100132        7.717916       
78              349.429000      2129.573576     272.391980      0.100132        7.818048       
79              349.419000      2164.561949     273.366061      0.100133        7.918181       
80              349.359000      2199.555144     274.315354      0.100164        8.018345       
81              349.449000      2234.541628     275.241921      0.100119        8.118464       
82              349.428000      2269.530203     276.145765      0.100131        8.218595       
83              349.419000      2304.518227     277.027750      0.100132        8.318727       
84              347.205000      2339.290808     277.862571      0.100150        8.418877       
85              347.205000      2374.084915     278.678262      0.100212        8.519089       
86              347.205000      2408.880759     279.475025      0.100217        8.619306       
87              347.205000      2443.647437     280.252828      0.100133        8.719439       
88              347.205000      2478.412726     281.012939      0.100129        8.819568       
89              347.059000      2513.162356     281.754324      0.100126        8.919694       
90              347.059000      2547.916497     282.479343      0.100139        9.019833       
91              347.059000      2582.668556     283.188397      0.100133        9.119966       
92              347.296000      2617.444693     283.884632      0.100134        9.220100       
93              347.126000      2652.208321     284.564167      0.100147        9.320247       
94              349.594000      2687.214566     285.255402      0.100134        9.420381       
95              349.600000      2722.221063     285.932153      0.100133        9.520514       
96              349.630000      2757.230564     286.595129      0.100133        9.620647       
97              349.754000      2792.252132     287.245717      0.100132        9.720779       
98              349.796000      2827.277905     287.883467      0.100132        9.820911       
99              349.784000      2862.303176     288.508234      0.100134        9.921045       
100             349.818000      2897.331851     289.120856      0.100134        10.021179      
101             349.835000      2932.362579     289.721530      0.100135        10.121314      
102             349.868000      2967.396961     290.310764      0.100136        10.221450      
103             349.878000      3002.452288     290.888988      0.100193        10.321643      
104             349.848000      3037.498661     291.455710      0.100176        10.421819      
105             349.899000      3072.535447     292.011896      0.100134        10.521953      
106             349.801000      3107.562770     292.556677      0.100135        10.622088      
107             349.763000      3142.586988     293.090938      0.100137        10.722225      
108             349.694000      3177.608842     293.614742      0.100150        10.822375      
109             349.729000      3212.633152     294.129245      0.100147        10.922522      
110             349.593000      3247.643143     294.633154      0.100145        11.022667      
111             349.693000      3282.670143     295.128987      0.100165        11.122832      
112             349.696000      3317.697093     295.615992      0.100164        11.222996      
113             349.696000      3352.714251     296.094248      0.100136        11.323132      
114             349.723000      3387.765239     296.564770      0.100225        11.423357      
115             349.782000      3422.791359     297.027218      0.100137        11.523494      
116             349.817000      3457.820284     297.481990      0.100135        11.623629      
117             349.846000      3492.852114     297.929241      0.100135        11.723764      
118             349.969000      3527.896259     298.369959      0.100135        11.823899      
119             350.005000      3562.941910     298.803551      0.100129        11.924028      
120             350.176000      3598.005383     299.231354      0.100131        12.024159      
121             350.159000      3633.068555     299.651968      0.100135        12.124294      
122             350.129000      3668.128372     300.065440      0.100134        12.224428      
123             350.143000      3703.189591     300.472308      0.100134        12.324562      
124             349.974000      3738.234238     300.871260      0.100135        12.424697      
125             349.974000      3773.287633     301.263929      0.100160        12.524857      
126             349.870000      3808.332712     301.649566      0.100166        12.625023      
127             349.945000      3843.375154     302.029613      0.100137        12.725160      
128             350.005000      3878.422905     302.404187      0.100135        12.825295      
129             350.005000      3913.489906     302.773158      0.100190        12.925485      
130             349.866000      3948.523738     303.135186      0.100135        13.025620      
131             349.970000      3983.568334     303.492487      0.100136        13.125756      
132             350.002000      4018.630834     303.844767      0.100178        13.225934      
133             350.073000      4053.684694     304.192129      0.100133        13.326067      
134             350.280000      4088.759631     304.535857      0.100134        13.426201      
135             350.288000      4123.853585     304.874730      0.100186        13.526387      
136             350.382000      4158.949248     305.209238      0.100164        13.626551      
137             350.455000      4194.036452     305.539250      0.100119        13.726670      
138             350.477000      4229.147238     305.864838      0.100180        13.826850      
139             350.526000      4264.251014     306.185987      0.100146        13.926996      
140             350.601000      4299.358445     306.503051      0.100135        14.027131      
141             350.593000      4334.464725     306.815560      0.100134        14.127265      
142             350.602000      4369.571906     307.123734      0.100134        14.227399      
143             350.602000      4404.679437     307.427603      0.100135        14.327534      
144             350.632000      4439.790323     307.727466      0.100136        14.427670      
145             350.662000      4474.911226     308.023460      0.100156        14.527826      
146             350.627000      4510.028273     308.315158      0.100155        14.627981      
147             350.620000      4545.173020     308.603073      0.100236        14.728217      
148             350.626000      4580.282603     308.886848      0.100134        14.828351      
149             350.595000      4615.389434     309.166612      0.100135        14.928486      
150             350.625000      4650.498918     309.442844      0.100134        15.028620      
151             350.565000      4685.592928     309.714950      0.100107        15.128727      
152             350.627000      4720.697002     309.983916      0.100118        15.228845      
153             350.687000      4755.813045     310.249804      0.100135        15.328980      
154             350.653000      4790.933748     310.512081      0.100158        15.429138      
155             350.687000      4826.052947     310.771158      0.100144        15.529282      
156             350.757000      4861.175648     311.027338      0.100134        15.629416      
157             350.751000      4896.344399     311.280551      0.100267        15.729683      
158             350.791000      4931.471206     311.530486      0.100136        15.829819      
159             350.825000      4966.601068     311.777490      0.100135        15.929954      
160             350.858000      5001.734234     312.021613      0.100135        16.030089      
161             350.858000      5036.867399     312.262706      0.100135        16.130224      
162             350.858000      5072.003021     312.500841      0.100142        16.230366      
163             350.760000      5107.135143     312.735496      0.100160        16.330526      
164             350.826000      5142.270718     312.967671      0.100151        16.430677      
165             350.782000      5177.406446     313.196797      0.100164        16.530841      
166             350.782000      5212.557959     313.423263      0.100209        16.631050      
167             350.815000      5247.686468     313.647048      0.100134        16.731184      
168             350.827000      5282.817232     313.868248      0.100137        16.831321      
169             350.861000      5317.955961     314.087061      0.100150        16.931471      
170             350.827000      5353.089180     314.303088      0.100144        17.031615      
171             350.893000      5388.247606     314.517087      0.100197        17.131812      
172             350.843000      5423.382427     314.728196      0.100144        17.231956      
173             350.907000      5458.521202     314.937221      0.100137        17.332093      
174             350.936000      5493.675864     315.144087      0.100174        17.432267      
175             350.966000      5528.819143     315.348677      0.100133        17.532400      
176             350.960000      5563.961821     315.550909      0.100133        17.632533      
177             350.924000      5599.101946     315.750660      0.100136        17.732669      
178             350.903000      5634.241022     315.948056      0.100139        17.832808      
179             350.843000      5669.372335     316.142903      0.100134        17.932942      
180             350.813000      5704.502398     316.335428      0.100139        18.033081      
181             350.748000      5739.627355     316.525476      0.100143        18.133224      
182             350.748000      5774.749155     316.713419      0.100134        18.233358      
183             350.749000      5809.873511     316.899328      0.100141        18.333499      
184             350.750000      5844.997265     317.083218      0.100139        18.433638      
185             350.752000      5880.120167     317.265127      0.100136        18.533774      
186             350.654000      5915.232555     317.444551      0.100134        18.633908      
187             350.717000      5950.352303     317.622398      0.100137        18.734045      
188             350.820000      5985.506923     317.799025      0.100207        18.834252      
189             350.820000      6020.636985     317.973661      0.100137        18.934389      
190             350.919000      6055.776259     318.146976      0.100135        19.034524      
191             350.886000      6090.913632     318.318312      0.100139        19.134663      
192             351.055000      6126.067929     318.488744      0.100139        19.234802      
193             351.120000      6161.240673     318.657804      0.100173        19.334975      
194             351.054000      6196.393816     318.824720      0.100136        19.435111      
195             351.110000      6231.553269     318.990215      0.100138        19.535249      
196             351.120000      6266.717937     319.154092      0.100150        19.635399      
197             351.081000      6301.905381     319.316230      0.100226        19.735625      
198             351.087000      6337.061829     319.476617      0.100136        19.835761      
199             351.054000      6372.215675     319.635231      0.100138        19.935899      
200             351.081000      6407.371171     319.792389      0.100135        20.036034      
201             351.142000      6442.534179     319.948293      0.100139        20.136173      
202             351.142000      6477.698242     320.102659      0.100142        20.236315      
203             351.172000      6512.862850     320.255642      0.100135        20.336450      
204             351.155000      6548.025756     320.407042      0.100135        20.436585      
205             351.173000      6583.190464     320.557054      0.100135        20.536720      
206             351.173000      6618.354821     320.705609      0.100134        20.636854      
207             351.254000      6653.538881     320.853168      0.100167        20.737021      
