#timestep       power           acc-energy      avg-power       dt              acc-time       
1               121.803000      12.197109       121.803000      0.100138        0.100138       
2               121.803000      25.420895       121.803000      0.108567        0.208705       
3               121.770000      37.612508       121.792302      0.100120        0.308825       
4               121.803000      49.813149       121.794922      0.100167        0.408992       
5               121.645000      61.995409       121.765433      0.100146        0.509138       
6               121.633000      74.177319       121.743664      0.100153        0.609291       
7               121.491000      86.350352       121.707981      0.100197        0.709488       
8               121.366000      98.507220       121.665673      0.100167        0.809655       
9               121.385000      110.665870      121.634773      0.100166        0.909821       
10              121.385000      122.824278      121.610002      0.100164        1.009985       
11              119.724000      134.816552      121.439833      0.100166        1.110151       
12              119.756000      146.810834      121.300491      0.100156        1.210307       
13              119.773000      158.805022      121.183764      0.100141        1.310448       
14              150.650000      173.891715      123.275699      0.100144        1.410592       
15              181.482000      192.062782      127.133444      0.100126        1.510718       
16              204.094000      212.500551      131.917700      0.100139        1.610857       
17              233.129000      235.843292      137.840654      0.100128        1.710985       
18              276.189000      263.493677      145.488279      0.100114        1.811099       
19              307.860000      294.313234      153.993304      0.100109        1.911208       
20              320.055000      326.353300      162.258591      0.100108        2.011316       
21              349.279000      361.321018      171.126212      0.100114        2.111430       
22              377.819000      399.143344      180.482327      0.100107        2.211537       
23              406.673000      439.854565      190.277731      0.100108        2.311645       
24              435.854000      483.482243      200.470134      0.100097        2.411742       
25              437.064000      527.235846      209.899415      0.100108        2.511850       
26              438.076000      571.086815      218.643938      0.100099        2.611949       
27              438.076000      614.946546      226.744516      0.100119        2.712068       
28              438.232000      658.818390      234.273277      0.100111        2.812179       
29              438.416000      702.708216      241.290688      0.100110        2.912289       
30              438.724000      746.651250      247.855151      0.100161        3.012450       
31              437.873000      790.502042      253.968808      0.100145        3.112595       
32              437.894000      834.355374      259.702035      0.100146        3.212741       
33              438.348000      878.249351      265.101788      0.100135        3.312876       
34              438.179000      922.126844      270.179784      0.100136        3.413012       
35              437.944000      965.981680      274.961695      0.100138        3.513150       
36              437.894000      1009.831509     279.477171      0.100138        3.613288       
37              438.551000      1053.748007     283.766915      0.100140        3.713428       
38              438.754000      1097.684832     287.836701      0.100140        3.813568       
39              438.174000      1141.564453     291.683455      0.100142        3.913710       
40              437.907000      1185.416460     295.331530      0.100140        4.013850       
41              438.198000      1229.298484     298.809158      0.100142        4.113992       
42              438.449000      1273.205644     302.127470      0.100142        4.214134       
43              438.788000      1317.178344     305.301831      0.100214        4.314348       
44              438.879000      1361.127248     308.331919      0.100139        4.414487       
45              439.068000      1405.096396     311.231863      0.100142        4.514629       
46              439.640000      1449.136014     314.019177      0.100172        4.614801       
47              440.117000      1493.209771     316.697378      0.100141        4.714942       
48              439.476000      1537.218458     319.250799      0.100139        4.815081       
49              439.984000      1581.279776     321.710623      0.100143        4.915224       
50              440.115000      1625.353772     324.074808      0.100142        5.015366       
51              440.175000      1669.431576     326.347492      0.100137        5.115503       
52              439.718000      1713.463617     328.524135      0.100137        5.215640       
53              439.777000      1757.502006     330.619903      0.100138        5.315778       
54              439.912000      1801.553914     332.640668      0.100138        5.415916       
55              439.912000      1845.593065     334.587509      0.100109        5.516025       
56              439.409000      1889.595921     336.456565      0.100141        5.616166       
57              439.226000      1933.579135     338.256876      0.100138        5.716304       
58              438.853000      1977.525435     339.988793      0.100139        5.816443       
59              439.036000      2021.501476     341.665609      0.100165        5.916608       
60              439.285000      2065.491915     343.290358      0.100141        6.016749       
61              439.285000      2109.481915     344.861892      0.100140        6.116889       
62              439.285000      2153.472794     346.382830      0.100142        6.217031       
63              439.711000      2197.505893     347.862286      0.100141        6.317172       
64              440.086000      2241.576545     349.301420      0.100141        6.417313       
65              439.594000      2285.597928     350.688770      0.100141        6.517454       
66              439.809000      2329.640841     352.037385      0.100141        6.617595       
67              440.044000      2373.706407     353.349270      0.100139        6.717734       
68              440.111000      2417.779122     354.623615      0.100140        6.817874       
69              439.920000      2461.834911     355.858362      0.100145        6.918019       
70              439.887000      2505.885195     357.057342      0.100140        7.018159       
71              440.331000      2549.979941     358.228833      0.100140        7.118299       
72              440.604000      2594.102026     359.371607      0.100140        7.218439       
73              440.192000      2638.183733     360.477493      0.100142        7.318581       
74              439.827000      2682.228009     361.548575      0.100140        7.418721       
75              440.265000      2726.334197     362.597384      0.100181        7.518902       
76              440.363000      2770.432588     363.619498      0.100141        7.619043       
77              440.502000      2814.543577     364.616865      0.100138        7.719181       
78              440.333000      2858.639405     365.586561      0.100142        7.819323       
79              440.660000      2902.766656     366.535840      0.100139        7.919462       
80              440.671000      2946.895891     367.461568      0.100141        8.019603       
81              440.855000      2991.043111     368.366722      0.100140        8.119743       
82              439.911000      3035.113835     369.238674      0.100181        8.219924       
83              440.146000      3079.190495     370.092120      0.100141        8.320065       
84              440.316000      3123.285060     370.927305      0.100143        8.420208       
85              440.327000      3167.380287     371.742979      0.100142        8.520350       
86              439.930000      3211.457314     372.535472      0.100191        8.620541       
87              440.208000      3255.539743     373.312559      0.100140        8.720681       
88              440.265000      3299.628760     374.072664      0.100142        8.820823       
89              440.543000      3343.744736     374.818810      0.100140        8.920963       
90              440.574000      3387.864257     375.548742      0.100141        9.021104       
91              440.181000      3431.944423     376.258331      0.100141        9.121245       
92              440.329000      3476.039409     376.954116      0.100141        9.221386       
93              440.788000      3520.179919     377.639876      0.100140        9.321526       
94              441.036000      3564.346147     378.313707      0.100142        9.421668       
95              440.854000      3608.495030     378.971464      0.100144        9.521812       
96              441.258000      3652.683488     379.619721      0.100142        9.621954       
97              441.433000      3696.888147     380.256406      0.100139        9.722093       
98              441.557000      3741.104341     380.881362      0.100137        9.822230       
99              441.035000      3785.269586     381.488453      0.100140        9.922370       
100             440.754000      3829.406691     382.080606      0.100140        10.022510      
101             441.093000      3873.578185     382.664401      0.100141        10.122651      
102             440.956000      3917.736842     383.235429      0.100143        10.222794      
103             440.656000      3961.865456     383.792467      0.100143        10.322937      
104             440.552000      4005.982774     384.337791      0.100141        10.423078      
105             440.924000      4050.136903     384.876271      0.100140        10.523218      
106             441.159000      4094.315448     385.406825      0.100142        10.623360      
107             440.552000      4138.431884     385.921786      0.100139        10.723499      
108             440.925000      4182.586114     386.430674      0.100140        10.823639      
109             440.757000      4226.723960     386.928697      0.100141        10.923780      
110             441.095000      4270.895214     387.420737      0.100140        11.023920      
111             440.906000      4315.047982     387.902222      0.100141        11.124061      
112             440.966000      4359.206758     388.375651      0.100141        11.224202      
113             441.796000      4403.448209     388.848042      0.100140        11.324342      
114             441.950000      4447.705966     389.313510      0.100142        11.424484      
115             441.428000      4491.911007     389.766349      0.100141        11.524625      
116             441.274000      4536.101068     390.210063      0.100142        11.624767      
117             441.624000      4580.325296     390.649179      0.100140        11.724907      
118             441.701000      4624.557234     391.081510      0.100140        11.825047      
119             441.728000      4668.792759     391.506815      0.100142        11.925189      
120             441.736000      4713.029086     391.925103      0.100142        12.025331      
121             441.837000      4757.273759     392.337299      0.100138        12.125469      
122             441.973000      4801.533377     392.743869      0.100141        12.225610      
123             441.837000      4845.778493     393.142720      0.100139        12.325749      
124             441.556000      4889.997677     393.532898      0.100144        12.425893      
125             441.700000      4934.229957     393.917976      0.100141        12.526034      
126             441.634000      4978.456069     394.296426      0.100142        12.626176      
127             441.775000      5022.695417     394.670022      0.100140        12.726316      
128             441.268000      5066.884436     395.033830      0.100141        12.826457      
129             441.503000      5111.117297     395.393986      0.100187        12.926644      
130             441.842000      5155.365122     395.751057      0.100144        13.026788      
131             441.994000      5199.628169     396.103840      0.100144        13.126932      
132             441.334000      5243.823797     396.446273      0.100141        13.227073      
133             440.962000      5287.982614     396.780769      0.100142        13.327215      
134             441.471000      5332.192403     397.114071      0.100142        13.427357      
135             441.471000      5376.402633     397.442442      0.100143        13.527500      
136             441.810000      5420.645928     397.768471      0.100141        13.627641      
137             441.739000      5464.881672     398.089223      0.100140        13.727781      
138             442.209000      5509.164923     398.408736      0.100141        13.827922      
139             442.449000      5553.471766     398.725377      0.100140        13.928062      
140             442.943000      5597.828964     399.041029      0.100142        14.028204      
141             442.307000      5642.122914     399.347702      0.100143        14.128347      
142             442.232000      5686.411564     399.649546      0.100148        14.228495      
143             442.724000      5730.746388     399.950588      0.100141        14.328636      
144             443.003000      5775.109595     400.249390      0.100142        14.428778      
145             442.750000      5819.447023     400.542327      0.100141        14.528919      
146             442.543000      5863.764606     400.829842      0.100143        14.629062      
147             442.785000      5908.104653     401.115081      0.100139        14.729201      
148             442.909000      5952.458004     401.397311      0.100141        14.829342      
149             442.263000      5996.747105     401.671424      0.100142        14.929484      
150             441.532000      6040.963444     401.937017      0.100143        15.029627      
151             441.712000      6085.196925     402.200280      0.100141        15.129768      
152             441.930000      6129.452679     402.461517      0.100142        15.229910      
153             442.174000      6173.732868     402.720935      0.100142        15.330052      
154             442.007000      6217.996333     402.975901      0.100142        15.430194      
155             442.174000      6262.276080     403.228654      0.100141        15.530335      
156             442.482000      6306.587112     403.480144      0.100142        15.630477      
157             442.821000      6350.931650     403.730588      0.100141        15.730618      
158             442.449000      6395.256633     403.975607      0.100181        15.830799      
159             442.327000      6439.553471     404.216691      0.100145        15.930944      
160             442.914000      6483.907764     404.458423      0.100142        16.031086      
161             442.914000      6528.262501     404.697156      0.100143        16.131229      
162             443.098000      6572.635221     404.934076      0.100142        16.231371      
163             442.816000      6616.980144     405.166364      0.100143        16.331514      
164             442.751000      6661.317672     405.395419      0.100141        16.431655      
165             443.034000      6705.684425     405.623419      0.100143        16.531798      
166             443.324000      6750.079777     405.850417      0.100142        16.631940      
167             442.879000      6794.431009     406.072036      0.100143        16.732083      
168             442.789000      6838.771900     406.290476      0.100140        16.832223      
169             442.511000      6883.097784     406.504750      0.100169        16.932392      
170             442.725000      6927.432708     406.717704      0.100141        17.032533      
171             443.056000      6971.822046     406.930203      0.100189        17.132722      
172             442.853000      7016.171117     407.138959      0.100144        17.232866      
173             442.943000      7060.527872     407.345816      0.100141        17.333007      
174             443.286000      7104.917645     407.552260      0.100138        17.433145      
175             443.559000      7149.336530     407.757914      0.100142        17.533287      
176             442.684000      7193.667792     407.956263      0.100142        17.633429      
177             442.952000      7238.025005     408.153881      0.100140        17.733569      
178             443.188000      7282.405851     408.350605      0.100140        17.833709      
179             443.089000      7326.778999     408.544588      0.100145        17.933854      
180             442.783000      7371.119289     408.734709      0.100140        18.033994      
181             442.750000      7415.456274     408.922548      0.100140        18.134134      
182             443.003000      7459.819037     409.109714      0.100141        18.234275      
183             443.292000      7504.210741     409.296415      0.100141        18.334416      
184             443.123000      7548.584192     409.480164      0.100138        18.434554      
185             443.034000      7592.949617     409.661450      0.100140        18.534694      
186             442.885000      7637.313850     409.840042      0.100171        18.634865      
187             443.134000      7681.700367     410.018045      0.100165        18.735030      
188             443.566000      7726.119067     410.196407      0.100140        18.835170      
189             443.402000      7770.521343     410.372016      0.100140        18.935310      
190             443.779000      7814.962260     410.547764      0.100142        19.035452      
191             443.845000      7859.408454     410.722013      0.100139        19.135591      
192             443.910000      7903.861601     410.894787      0.100140        19.235731      
193             443.471000      7948.271231     411.063501      0.100141        19.335872      
194             443.133000      7992.646126     411.228730      0.100139        19.436011      
195             443.571000      8037.067988     411.394523      0.100146        19.536157      
196             443.401000      8081.469720     411.557746      0.100139        19.636296      
197             443.128000      8125.844558     411.717929      0.100140        19.736436      
198             443.095000      8170.216978     411.876332      0.100142        19.836578      
199             443.257000      8214.604734     412.033953      0.100140        19.936718      
200             443.506000      8259.018755     412.191249      0.100143        20.036861      
201             443.596000      8303.440902     412.347424      0.100141        20.137002      
202             442.965000      8347.800303     412.498933      0.100142        20.237144      
203             443.408000      8392.204511     412.651132      0.100143        20.337287      
204             443.441000      8436.611136     412.801999      0.100141        20.437428      
205             443.661000      8481.040679     412.952470      0.100143        20.537571      
206             443.536000      8525.456818     413.100872      0.100141        20.637712      
207             443.982000      8569.918063     413.249995      0.100142        20.737854      
