#timestep       power           acc-energy      avg-power       dt              acc-time       
1               119.976000      12.011637       119.976000      0.100117        0.100117       
2               119.976000      25.184762       119.976000      0.109798        0.209915       
3               119.910000      37.192909       119.954683      0.100143        0.310058       
4               119.824000      49.191845       119.922781      0.100138        0.410196       
5               119.764000      61.184054       119.891626      0.100132        0.510328       
6               119.705000      73.170235       119.861015      0.100131        0.610459       
7               119.637000      85.149727       119.829448      0.100132        0.710591       
8               119.465000      97.111997       119.784435      0.100132        0.810723       
9               119.330000      109.060629      119.734479      0.100131        0.910854       
10              119.325000      121.009238      119.693921      0.100135        1.010989       
11              119.227000      132.947556      119.651844      0.100131        1.111120       
12              119.172000      144.880368      119.612176      0.100131        1.211251       
13              119.161000      156.812078      119.577726      0.100131        1.311382       
14              119.128000      168.740484      119.545823      0.100131        1.411513       
15              119.128000      180.668890      119.518147      0.100131        1.511644       
16              119.062000      192.590687      119.489809      0.100131        1.611775       
17              119.116000      204.517891      119.467944      0.100131        1.711906       
18              119.165000      216.450121      119.451204      0.100132        1.812038       
19              119.165000      228.382231      119.436217      0.100131        1.912169       
20              119.101000      240.308053      119.419536      0.100132        2.012301       
21              142.486000      254.575318      120.512906      0.100131        2.112432       
22              169.824000      271.579965      122.744512      0.100131        2.212563       
23              197.535000      291.359342      125.982660      0.100131        2.312694       
24              225.333000      313.922612      130.105727      0.100133        2.412827       
25              266.890000      340.646841      135.556068      0.100132        2.512959       
26              297.458000      370.431906      141.760048      0.100132        2.613091       
27              309.200000      401.392720      147.939451      0.100132        2.713223       
28              337.590000      435.196282      154.689430      0.100132        2.813355       
29              364.814000      471.725472      161.911014      0.100131        2.913486       
30              392.445000      511.021775      169.570853      0.100132        3.013618       
31              424.330000      553.510362      177.763321      0.100131        3.113749       
32              424.601000      596.026085      185.453746      0.100131        3.213880       
33              424.802000      638.561934      192.685520      0.100131        3.314011       
34              424.700000      681.087570      199.490112      0.100131        3.414142       
35              424.702000      723.613831      205.907061      0.100132        3.514274       
36              424.184000      766.088223      211.954114      0.100132        3.614406       
37              423.691000      808.512826      217.661805      0.100131        3.714537       
38              423.696000      850.937931      223.069984      0.100131        3.814668       
39              423.528000      893.346213      228.197211      0.100131        3.914799       
40              423.730000      935.789976      233.075442      0.100167        4.014966       
41              423.853000      978.232496      237.717737      0.100135        4.115101       
42              424.303000      1020.722198     242.150377      0.100140        4.215241       
43              424.676000      1063.276007     246.388554      0.100203        4.315444       
44              424.035000      1105.740568     250.417514      0.100144        4.415588       
45              423.765000      1148.175124     254.261525      0.100137        4.515725       
46              423.640000      1190.594621     257.935824      0.100131        4.615856       
47              423.517000      1233.002225     261.451519      0.100132        4.715988       
48              423.662000      1275.420536     264.823742      0.100123        4.816111       
49              423.591000      1317.835126     268.057416      0.100131        4.916242       
50              423.489000      1360.239927     271.159991      0.100132        5.016374       
51              423.657000      1402.661549     274.144416      0.100132        5.116506       
52              423.601000      1445.078412     277.013252      0.100134        5.216640       
53              423.507000      1487.497297     279.772987      0.100161        5.316801       
54              423.202000      1529.874629     282.424350      0.100135        5.416936       
55              423.843000      1572.311062     284.990801      0.100123        5.517059       
56              424.089000      1614.775941     287.470364      0.100132        5.617191       
57              424.796000      1657.311614     289.875456      0.100132        5.717323       
58              425.189000      1699.894718     292.204953      0.100151        5.817474       
59              425.006000      1742.447594     294.451885      0.100123        5.917597       
60              424.883000      1785.002175     296.622705      0.100156        6.017753       
61              424.670000      1827.526081     298.718509      0.100134        6.117887       
62              424.454000      1870.039818     300.743870      0.100161        6.218048       
63              424.548000      1912.556602     302.706217      0.100146        6.318194       
64              424.362000      1955.054759     304.604424      0.100146        6.418340       
65              424.488000      1997.559592     306.445988      0.100132        6.518472       
66              424.497000      2040.065325     308.231966      0.100132        6.618604       
67              424.395000      2082.595646     309.964587      0.100214        6.718818       
68              423.766000      2125.033268     311.635887      0.100144        6.818962       
69              423.934000      2167.479660     313.260935      0.100125        6.919087       
70              424.100000      2209.940128     314.841896      0.100119        7.019206       
71              424.470000      2252.442733     316.383777      0.100131        7.119337       
72              424.958000      2294.994203     317.889657      0.100131        7.219468       
73              425.621000      2337.612059     319.363405      0.100131        7.319599       
74              425.263000      2380.194069     320.792545      0.100131        7.419730       
75              425.117000      2422.761034     322.181667      0.100130        7.519860       
76              424.781000      2465.295205     323.529894      0.100132        7.619992       
77              424.851000      2507.835960     324.844042      0.100131        7.720123       
78              424.810000      2550.372186     326.124000      0.100130        7.820253       
79              424.710000      2592.898398     327.370330      0.100130        7.920383       
80              425.045000      2635.458154     328.589724      0.100130        8.020513       
81              425.110000      2678.024843     329.779860      0.100131        8.120644       
82              424.638000      2720.544271     330.935255      0.100131        8.220775       
83              424.710000      2763.070908     332.063709      0.100131        8.320906       
84              424.605000      2805.586606     333.164068      0.100130        8.421036       
85              424.710000      2848.113243     334.239811      0.100131        8.521167       
86              425.168000      2890.705723     335.296375      0.100178        8.621345       
87              425.656000      2933.327084     336.333791      0.100131        8.721476       
88              426.174000      2975.997330     337.353465      0.100124        8.821600       
89              426.015000      3018.654638     338.348538      0.100131        8.921731       
90              425.310000      3061.246882     339.313821      0.100144        9.021875       
91              425.198000      3103.821958     340.256551      0.100130        9.122005       
92              424.892000      3146.371493     341.175595      0.100142        9.222147       
93              424.942000      3188.921785     342.075343      0.100132        9.322279       
94              424.844000      3231.462265     342.954926      0.100132        9.422411       
95              425.015000      3274.019442     343.817800      0.100131        9.522542       
96              425.040000      3316.575296     344.662902      0.100122        9.622664       
97              424.858000      3359.112929     345.488724      0.100122        9.722786       
98              424.134000      3401.581042     346.290388      0.100129        9.822915       
99              424.502000      3444.091522     347.079687      0.100142        9.923057       
100             424.705000      3486.614685     347.855106      0.100124        10.023181      
101             425.440000      3529.211865     348.622462      0.100125        10.123306      
102             425.805000      3571.848571     349.378416      0.100132        10.223438      
103             426.322000      3614.536620     350.124712      0.100131        10.323569      
104             426.105000      3657.203792     350.854600      0.100133        10.423702      
105             425.772000      3699.837193     351.567422      0.100132        10.523834      
106             425.706000      3742.463987     352.266186      0.100132        10.623966      
107             425.435000      3785.061091     352.949330      0.100126        10.724092      
108             425.341000      3827.650060     353.618987      0.100129        10.824221      
109             425.464000      3870.250494     354.277481      0.100127        10.924348      
110             425.571000      3912.861216     354.924980      0.100126        11.024474      
111             425.435000      3955.458321     355.559600      0.100126        11.124600      
112             424.964000      3998.008267     356.178696      0.100126        11.224726      
113             424.628000      4040.525419     356.783886      0.100128        11.324854      
114             424.899000      4083.069281     357.380838      0.100127        11.424981      
115             425.539000      4125.687438     357.973118      0.100151        11.525132      
116             426.114000      4168.360624     358.560112      0.100145        11.625277      
117             426.684000      4211.081933     359.141827      0.100124        11.725401      
118             427.220000      4253.856481     359.718223      0.100123        11.825524      
119             426.646000      4296.573985     360.280128      0.100124        11.925648      
120             426.289000      4339.255319     360.829698      0.100123        12.025771      
121             426.106000      4381.918756     361.368687      0.100124        12.125895      
122             425.771000      4424.539284     361.895990      0.100102        12.225997      
123             425.987000      4467.175471     362.416410      0.100088        12.326085      
124             426.080000      4509.821818     362.929205      0.100090        12.426175      
125             426.327000      4552.492462     363.435775      0.100089        12.526264      
126             426.287000      4595.158675     363.933991      0.100088        12.626352      
127             425.675000      4637.764060     364.419562      0.100089        12.726441      
128             425.404000      4680.341895     364.895436      0.100088        12.826529      
129             424.975000      4722.887843     365.360739      0.100114        12.926643      
130             425.710000      4765.498008     365.824438      0.100092        13.026735      
131             426.445000      4808.187285     366.286729      0.100105        13.126840      
132             426.920000      4850.922830     366.745604      0.100102        13.226942      
133             427.289000      4893.692323     367.200325      0.100095        13.327037      
134             426.747000      4936.407137     367.644223      0.100094        13.427131      
135             426.504000      4979.095496     368.079731      0.100089        13.527220      
136             426.257000      5021.759133     368.507028      0.100089        13.627309      
137             425.933000      5064.392045     368.925748      0.100093        13.727402      
138             426.352000      5107.066043     369.341430      0.100091        13.827493      
139             426.488000      5149.752374     369.752104      0.100088        13.927581      
140             426.152000      5192.405075     370.154519      0.100088        14.027669      
141             425.946000      5235.037158     370.549774      0.100088        14.127757      
142             425.747000      5277.649324     370.938067      0.100088        14.227845      
143             425.623000      5320.249079     371.320070      0.100088        14.327933      
144             425.681000      5362.855064     371.697178      0.100089        14.428022      
145             426.082000      5405.501612     372.071857      0.100090        14.528112      
146             426.685000      5448.207660     372.445527      0.100088        14.628200      
147             427.021000      5490.947338     372.816402      0.100088        14.728288      
148             427.241000      5533.709035     373.183755      0.100088        14.828376      
149             426.842000      5576.430797     373.543507      0.100088        14.928464      
150             426.536000      5619.122785     373.896436      0.100090        15.028554      
151             426.506000      5661.811344     374.244494      0.100089        15.128643      
152             426.314000      5704.481113     374.586718      0.100090        15.228733      
153             426.483000      5747.166943     374.925570      0.100088        15.328821      
154             426.447000      5789.849597     375.259795      0.100089        15.428910      
155             426.570000      5832.545415     375.590511      0.100091        15.529001      
156             426.723000      5875.267215     375.918052      0.100116        15.629117      
157             426.082000      5917.912910     376.237255      0.100088        15.729205      
158             425.895000      5960.540315     376.551242      0.100089        15.829294      
159             426.115000      6003.190591     376.862672      0.100091        15.929385      
160             426.324000      6045.861360     377.171514      0.100090        16.029475      
161             427.053000      6088.603814     377.481038      0.100087        16.129562      
162             427.422000      6131.383627     377.789024      0.100088        16.229650      
163             427.695000      6174.190764     378.094907      0.100088        16.329738      
164             428.024000      6217.031686     378.399073      0.100090        16.429828      
165             427.519000      6259.822063     378.696498      0.100090        16.529918      
166             427.014000      6302.597336     378.987544      0.100173        16.630091      
167             427.388000      6345.374601     379.277104      0.100090        16.730181      
168             427.388000      6388.152721     379.563226      0.100092        16.830273      
169             427.285000      6430.919249     379.845348      0.100089        16.930362      
170             427.299000      6473.698289     380.124308      0.100115        17.030477      
171             427.393000      6516.515802     380.400744      0.100183        17.130660      
172             426.846000      6559.256745     380.670647      0.100132        17.230792      
173             426.663000      6601.978938     380.936372      0.100131        17.330923      
174             426.480000      6644.683234     381.197996      0.100132        17.431055      
175             426.446000      6687.384124     381.456437      0.100132        17.531187      
176             427.147000      6730.154781     381.715921      0.100131        17.631318      
177             427.424000      6772.953173     381.974038      0.100131        17.731449      
178             427.636000      6815.772366     382.230444      0.100130        17.831579      
179             427.882000      6858.616619     382.485364      0.100131        17.931710      
180             427.557000      6901.428328     382.735647      0.100131        18.031841      
181             427.085000      6944.193204     382.980562      0.100132        18.131973      
182             427.454000      6986.994600     383.224810      0.100131        18.232104      
183             427.389000      7029.789061     383.466034      0.100130        18.332234      
184             427.319000      7072.577367     383.704261      0.100132        18.432366      
185             427.419000      7115.375259     383.940451      0.100131        18.532497      
186             427.221000      7158.153325     384.173039      0.100131        18.632628      
187             426.819000      7200.891138     384.400992      0.100131        18.732759      
188             426.528000      7243.599813     384.624973      0.100131        18.832890      
189             426.528000      7286.308488     384.846586      0.100131        18.933021      
190             426.670000      7329.031382     385.066613      0.100131        19.033152      
191             427.311000      7371.818460     385.287693      0.100131        19.133283      
192             427.587000      7414.633174     385.507907      0.100131        19.233414      
193             427.938000      7457.483034     385.727658      0.100131        19.333545      
194             428.164000      7500.355951     385.946311      0.100132        19.433677      
195             427.858000      7543.197801     386.161152      0.100131        19.533808      
196             427.587000      7586.012942     386.372422      0.100132        19.633940      
197             427.374000      7628.806328     386.580464      0.100131        19.734071      
198             427.757000      7671.638064     386.788340      0.100131        19.834202      
199             427.557000      7714.449774     386.993123      0.100131        19.934333      
200             427.525000      7757.258280     387.195698      0.100131        20.034464      
201             427.492000      7800.063909     387.396097      0.100132        20.134596      
202             427.221000      7842.841975     387.593170      0.100131        20.234727      
203             427.176000      7885.615108     387.788078      0.100130        20.334857      
204             427.023000      7928.373775     387.980330      0.100132        20.434989      
205             427.253000      7971.155045     388.171827      0.100131        20.535120      
206             427.822000      8013.993290     388.364226      0.100131        20.635251      
207             427.952000      8056.844551     388.555395      0.100131        20.735382      
