#timestep       power           acc-energy      avg-power       dt              acc-time       
1               123.332000      12.346397       123.332000      0.100107        0.100107       
2               123.302000      25.416655       123.316571      0.106002        0.206109       
3               123.155000      37.752229       123.263731      0.100163        0.306272       
4               123.119000      50.084075       123.228063      0.100162        0.406434       
5               123.016000      62.405234       123.186136      0.100159        0.506593       
6               122.912000      74.718804       123.140875      0.100182        0.606775       
7               122.814000      87.025504       123.094544      0.100206        0.706981       
8               122.742000      99.328057       123.050769      0.100231        0.807212       
9               122.807000      111.642406      123.023833      0.100274        0.907486       
10              122.775000      123.945444      122.999089      0.100208        1.007694       
11              122.606000      136.233753      122.963529      0.100226        1.107920       
12              122.573000      148.510664      122.931150      0.100160        1.208080       
13              132.977000      161.827912      123.700177      0.100147        1.308227       
14              149.825000      176.831687      125.557781      0.100142        1.408369       
15              169.961000      193.851752      128.505447      0.100141        1.508510       
16              187.923000      212.670924      132.204350      0.100143        1.608653       
17              197.867000      232.485524      136.052399      0.100141        1.708794       
18              214.105000      253.926641      140.373402      0.100143        1.808937       
19              229.977000      276.957227      145.073662      0.100143        1.909080       
20              246.741000      301.665871      150.140787      0.100140        2.009220       
21              262.973000      328.000513      155.497498      0.100142        2.109362       
22              279.462000      355.986118      161.115924      0.100141        2.209503       
23              295.970000      385.624849      166.962895      0.100141        2.309644       
24              301.354000      415.802740      172.547651      0.100141        2.409785       
25              301.568000      446.002664      177.695402      0.100143        2.509928       
26              302.119000      476.257163      182.469185      0.100141        2.610069       
27              302.698000      506.570249      186.911669      0.100143        2.710212       
28              302.700000      536.882930      191.037542      0.100141        2.810353       
29              303.439000      567.269311      194.904888      0.100140        2.910493       
30              303.493000      597.661404      198.516792      0.100141        3.010634       
31              303.439000      628.048089      201.894412      0.100141        3.110775       
32              303.609000      658.451190      205.066592      0.100139        3.210914       
33              303.609000      688.853988      208.046865      0.100138        3.311052       
34              303.618000      719.257688      210.852426      0.100138        3.411190       
35              303.712000      749.671711      213.500724      0.100141        3.511331       
36              303.881000      780.102962      216.006865      0.100142        3.611473       
37              303.815000      810.528211      218.376037      0.100144        3.711617       
38              303.914000      840.962159      220.623235      0.100140        3.811757       
39              303.835000      871.389108      222.753421      0.100143        3.911900       
40              303.835000      901.815145      224.777207      0.100140        4.012040       
41              303.835000      932.241789      226.702463      0.100142        4.112182       
42              303.835000      962.673599      228.536483      0.100159        4.212341       
43              303.805000      993.112733      230.285195      0.100193        4.312534       
44              303.886000      1023.544181     231.955488      0.100141        4.412675       
45              303.964000      1053.983440     233.553382      0.100141        4.512816       
46              303.994000      1084.426007     235.082567      0.100142        4.612958       
47              304.029000      1114.871775     236.547498      0.100141        4.713099       
48              304.029000      1145.327577     237.951925      0.100174        4.813273       
49              304.159000      1175.786667     239.301314      0.100142        4.913415       
50              304.089000      1206.238748     240.595399      0.100142        5.013557       
51              304.089000      1236.692653     241.838873      0.100148        5.113705       
52              304.059000      1267.140817     243.033895      0.100139        5.213844       
53              304.024000      1297.585476     244.183219      0.100139        5.313983       
54              304.024000      1328.031048     245.290060      0.100142        5.414125       
55              304.024000      1358.476923     246.356710      0.100143        5.514268       
56              304.089000      1388.929612     247.386478      0.100144        5.614412       
57              304.149000      1419.387397     248.381176      0.100141        5.714553       
58              304.259000      1449.856806     249.343526      0.100143        5.814696       
59              304.119000      1480.311283     250.270892      0.100140        5.914836       
60              304.231000      1510.780322     251.169341      0.100151        6.014987       
61              304.198000      1541.256703     252.038119      0.100186        6.115173       
62              304.231000      1571.723308     252.879066      0.100143        6.215316       
63              304.153000      1602.181189     253.692083      0.100140        6.315456       
64              304.153000      1632.639375     254.479727      0.100141        6.415597       
65              304.061000      1663.088651     255.241754      0.100142        6.515739       
66              304.093000      1693.543261     255.981247      0.100149        6.615888       
67              304.182000      1724.005263     256.699977      0.100144        6.716032       
68              304.247000      1754.473166     257.398530      0.100142        6.816174       
69              304.277000      1784.945595     258.077321      0.100147        6.916321       
70              304.296000      1815.419014     258.736987      0.100144        7.016465       
71              304.367000      1845.899238     259.379080      0.100143        7.116608       
72              304.302000      1876.374475     260.002482      0.100148        7.216756       
73              304.405000      1906.857896     260.610187      0.100141        7.316897       
74              304.268000      1937.327902     261.199638      0.100142        7.417039       
75              304.312000      1967.802314     261.773970      0.100142        7.517181       
76              304.277000      1998.273526     262.332747      0.100143        7.617324       
77              304.166000      2028.733013     262.875570      0.100141        7.717465       
78              304.166000      2059.193413     263.404503      0.100144        7.817609       
79              304.198000      2089.656409     263.920450      0.100142        7.917751       
80              304.307000      2120.130321     264.424871      0.100142        8.017893       
81              304.297000      2150.603840     264.916733      0.100144        8.118037       
82              304.337000      2181.081060     265.397090      0.100143        8.218180       
83              304.337000      2211.557976     265.865877      0.100142        8.318322       
84              304.433000      2242.044505     266.324653      0.100142        8.418464       
85              304.367000      2272.524121     266.771862      0.100141        8.518605       
86              304.367000      2303.018955     267.208895      0.100191        8.618796       
87              304.263000      2333.488765     267.634487      0.100143        8.718939       
88              304.337000      2363.966898     268.051266      0.100146        8.819085       
89              304.366000      2394.446718     268.458995      0.100142        8.919227       
90              304.296000      2424.918919     268.856885      0.100140        9.019367       
91              304.531000      2455.428967     269.248800      0.100187        9.119554       
92              304.497000      2485.922210     269.631660      0.100143        9.219697       
93              304.634000      2516.428563     270.007758      0.100141        9.319838       
94              304.520000      2546.923805     270.374651      0.100142        9.419980       
95              304.635000      2577.430258     270.735031      0.100141        9.520121       
96              304.564000      2607.929907     271.087174      0.100142        9.620263       
97              304.635000      2638.436969     271.432795      0.100143        9.720406       
98              304.550000      2668.934606     271.770491      0.100140        9.820546       
99              304.521000      2699.429948     272.101083      0.100142        9.920688       
100             304.491000      2729.921982     272.424765      0.100141        10.020829      
101             304.491000      2760.415233     272.742054      0.100145        10.120974      
102             304.499000      2790.908981     273.053200      0.100144        10.221118      
103             304.551000      2821.407936     273.358814      0.100144        10.321262      
104             304.610000      2851.912800     273.659120      0.100144        10.421406      
105             304.640000      2882.420363     273.953993      0.100143        10.521549      
106             304.670000      2912.931540     274.243594      0.100145        10.621694      
107             304.699000      2943.445012     274.528051      0.100143        10.721837      
108             304.832000      2973.971194     274.808468      0.100141        10.821978      
109             304.728000      3004.487875     275.082798      0.100144        10.922122      
110             304.728000      3035.004251     275.352140      0.100143        11.022265      
111             304.629000      3065.511017     275.615743      0.100144        11.122409      
112             304.629000      3096.016565     275.874631      0.100140        11.222549      
113             304.662000      3126.525418     276.129232      0.100140        11.322689      
114             304.662000      3157.034575     276.379371      0.100141        11.422830      
115             304.793000      3187.557156     276.626304      0.100142        11.522972      
116             304.793000      3218.091928     276.869078      0.100182        11.623154      
117             304.870000      3248.622220     277.108265      0.100142        11.723296      
118             304.798000      3279.145911     277.342796      0.100144        11.823440      
119             304.934000      3309.683526     277.574532      0.100145        11.923585      
120             304.831000      3340.210217     277.801545      0.100143        12.023728      
121             304.864000      3370.740213     278.025081      0.100143        12.123871      
122             304.727000      3401.256488     278.243831      0.100143        12.224014      
123             304.729000      3431.772355     278.459039      0.100141        12.324155      
124             304.700000      3462.285318     278.670543      0.100141        12.424296      
125             304.526000      3492.781465     278.877279      0.100143        12.524439      
126             304.766000      3523.301037     279.082634      0.100141        12.624580      
127             304.734000      3553.818319     279.284511      0.100144        12.724724      
128             304.794000      3584.342219     279.483708      0.100146        12.824870      
129             304.794000      3614.878920     279.679899      0.100188        12.925058      
130             304.794000      3645.401601     279.872985      0.100142        13.025200      
131             304.794000      3675.924282     280.063124      0.100142        13.125342      
132             304.824000      3706.449967     280.250611      0.100142        13.225484      
133             304.799000      3736.972843     280.435090      0.100141        13.325625      
134             304.824000      3767.498528     280.617005      0.100142        13.425767      
135             304.794000      3798.021209     280.796005      0.100142        13.525909      
136             304.695000      3828.534280     280.971648      0.100143        13.626052      
137             304.824000      3859.059965     281.145667      0.100142        13.726194      
138             304.853000      3889.588555     281.317375      0.100142        13.826336      
139             305.007000      3920.132566     281.487722      0.100142        13.926478      
140             304.889000      3950.665674     281.654798      0.100145        14.026623      
141             304.888000      3981.198073     281.819496      0.100143        14.126766      
142             304.903000      4011.731670     281.981979      0.100142        14.226908      
143             304.918000      4042.266768     282.142295      0.100142        14.327050      
144             304.948000      4072.804871     282.300594      0.100142        14.427192      
145             304.968000      4103.345281     282.456850      0.100143        14.527335      
146             304.869000      4133.876387     282.610292      0.100145        14.627480      
147             304.765000      4164.396468     282.760936      0.100143        14.727623      
148             304.870000      4194.927675     282.910258      0.100145        14.827768      
149             304.798000      4225.450451     283.057088      0.100141        14.927909      
150             304.973000      4255.991667     283.203131      0.100144        15.028053      
151             305.109000      4286.546198     283.348140      0.100143        15.128196      
152             305.005000      4317.090314     283.490558      0.100143        15.228339      
153             305.109000      4347.644539     283.631792      0.100142        15.328481      
154             305.005000      4378.188350     283.770519      0.100142        15.428623      
155             304.982000      4408.729857     283.907307      0.100142        15.528765      
156             304.947000      4439.267860     284.042119      0.100142        15.628907      
157             304.947000      4469.806472     284.175216      0.100144        15.729051      
158             304.882000      4500.337965     284.306216      0.100142        15.829193      
159             304.882000      4530.869458     284.435569      0.100142        15.929335      
160             304.962000      4561.409268     284.563806      0.100143        16.029478      
161             304.897000      4591.942263     284.690046      0.100142        16.129620      
162             305.007000      4622.485664     284.815405      0.100140        16.229760      
163             305.007000      4653.028760     284.939225      0.100139        16.329899      
164             305.137000      4683.585485     285.062330      0.100141        16.430040      
165             305.066000      4714.135404     285.183515      0.100142        16.530182      
166             305.170000      4744.696349     285.303869      0.100144        16.630326      
167             305.033000      4775.242963     285.421960      0.100142        16.730468      
168             305.037000      4805.790284     285.538670      0.100143        16.830611      
169             305.007000      4836.334905     285.653824      0.100144        16.930755      
170             305.007000      4866.878611     285.767620      0.100141        17.030896      
171             305.033000      4897.439257     285.880290      0.100188        17.131084      
172             304.863000      4927.969457     285.990613      0.100144        17.231228      
173             304.977000      4958.510464     286.100318      0.100142        17.331370      
174             304.977000      4989.051470     286.208762      0.100142        17.431512      
175             305.042000      5019.598376     286.316337      0.100140        17.531652      
176             305.110000      5050.153007     286.423079      0.100143        17.631795      
177             305.012000      5080.697519     286.528061      0.100142        17.731937      
178             305.041000      5111.245240     286.632027      0.100143        17.832080      
179             305.109000      5141.799160     286.735210      0.100141        17.932221      
180             305.076000      5172.350691     286.837067      0.100144        18.032365      
181             304.978000      5202.892408     286.937258      0.100144        18.132509      
182             304.841000      5233.420405     287.035595      0.100144        18.232653      
183             304.957000      5263.960019     287.133492      0.100144        18.332797      
184             304.940000      5294.498235     287.230234      0.100145        18.432942      
185             305.141000      5325.055970     287.327014      0.100143        18.533085      
186             305.135000      5355.613410     287.422723      0.100144        18.633229      
187             305.229000      5386.179652     287.517909      0.100142        18.733371      
188             305.229000      5416.746505     287.612084      0.100144        18.833515      
189             305.200000      5447.310454     287.705110      0.100144        18.933659      
190             305.165000      5477.870592     287.796973      0.100143        19.033802      
191             305.195000      5508.434041     287.888031      0.100144        19.133946      
192             305.160000      5538.993984     287.977959      0.100144        19.234090      
193             305.131000      5569.550412     288.066804      0.100142        19.334232      
194             305.066000      5600.100637     288.154398      0.100143        19.434375      
195             304.896000      5630.634447     288.240225      0.100145        19.534520      
196             305.033000      5661.181366     288.325874      0.100143        19.634663      
197             304.929000      5691.717871     288.410125      0.100143        19.734806      
198             305.169000      5722.278105     288.494737      0.100142        19.834948      
199             305.137000      5752.844594     288.578363      0.100173        19.935121      
200             305.161000      5783.404637     288.661250      0.100144        20.035265      
201             305.161000      5813.963765     288.743309      0.100141        20.135406      
202             305.190000      5844.525491     288.824699      0.100140        20.235546      
203             305.272000      5875.095429     288.905692      0.100140        20.335686      
204             305.240000      5905.662773     288.985735      0.100142        20.435828      
205             305.224000      5936.237367     289.064942      0.100171        20.535999      
206             305.195000      5966.800815     289.143219      0.100144        20.636143      
207             305.195000      5997.363958     289.220739      0.100143        20.736286      
