#timestep       power           acc-energy      avg-power       dt              acc-time       
1               133.601000      13.378003       133.601000      0.100134        0.100134       
2               133.601000      28.078922       133.601000      0.110036        0.210170       
3               133.560000      41.454689       133.587768      0.100148        0.310318       
4               133.579000      54.833695       133.585629      0.100158        0.410476       
5               134.784000      68.332851       133.820675      0.100154        0.510630       
6               134.718000      81.825802       133.967819      0.100157        0.610787       
7               133.480000      95.194491       133.899096      0.100155        0.710942       
8               134.685000      108.686696      133.996158      0.100176        0.811118       
9               134.640000      122.176816      134.066945      0.100194        0.911312       
10              134.541000      135.651770      134.113886      0.100155        1.011467       
11              121.167000      147.787736      132.947354      0.100159        1.111626       
12              121.199000      159.927149      131.976287      0.100161        1.211787       
13              121.209000      172.067200      131.154278      0.100158        1.311945       
14              121.133000      184.199517      130.443493      0.100157        1.412102       
15              121.149000      196.333438      129.827918      0.100157        1.512259       
16              121.220000      208.474348      129.293233      0.100156        1.612415       
17              121.188000      220.612054      128.819216      0.100156        1.712571       
18              121.188000      232.750001      128.397571      0.100158        1.812729       
19              121.200000      244.904664      128.020253      0.100286        1.913015       
20              121.233000      257.047604      127.682565      0.100162        2.013177       
21              121.222000      269.188109      127.376398      0.100151        2.113328       
22              153.362000      284.545933      128.552030      0.100141        2.213469       
23              185.288000      303.100117      131.007664      0.100137        2.313606       
24              218.205000      324.950511      134.625149      0.100137        2.413743       
25              251.161000      350.100769      139.267152      0.100136        2.513879       
26              283.993000      378.538692      144.811217      0.100136        2.614015       
27              317.022000      410.283690      151.164707      0.100135        2.714150       
28              350.089000      445.339852      158.242627      0.100135        2.814285       
29              382.913000      483.682080      165.961808      0.100133        2.914418       
30              415.974000      525.334388      174.266271      0.100132        3.014550       
31              449.035000      570.298059      183.099813      0.100134        3.114684       
32              482.804000      618.625774      192.431640      0.100098        3.214782       
33              484.056000      667.095753      201.240681      0.100133        3.314915       
34              484.226000      715.580334      209.537723      0.100128        3.415043       
35              484.127000      764.057423      217.359649      0.100133        3.515176       
36              484.283000      812.545290      224.751892      0.100123        3.615299       
37              484.532000      861.062933      231.753113      0.100133        3.715432       
38              484.616000      909.588986      238.389069      0.100133        3.815565       
39              484.930000      958.146967      244.693723      0.100134        3.915699       
40              485.100000      1006.721970     250.688206      0.100134        4.015833       
41              485.171000      1055.301172     256.392413      0.100128        4.115961       
42              485.167000      1103.873667     261.824897      0.100115        4.216076       
43              485.341000      1152.494643     267.012640      0.100179        4.316255       
44              485.445000      1201.104192     271.965217      0.100134        4.416389       
45              485.475000      1249.716260     276.698809      0.100133        4.516522       
46              485.813000      1298.363145     281.234483      0.100135        4.616657       
47              485.914000      1347.019172     285.579636      0.100133        4.716790       
48              485.581000      1395.642340     289.737255      0.100134        4.816924       
49              485.664000      1444.274304     293.727267      0.100135        4.917059       
50              485.759000      1492.915296     297.559870      0.100134        5.017193       
51              485.634000      1541.543285     301.240000      0.100133        5.117326       
52              485.694000      1590.178254     304.780094      0.100135        5.217461       
53              485.816000      1638.824953     308.189126      0.100134        5.317595       
54              485.877000      1687.460755     311.472142      0.100099        5.417694       
55              485.952000      1736.121559     314.638522      0.100135        5.517829       
56              486.031000      1784.777150     317.692625      0.100108        5.617937       
57              486.031000      1833.445864     320.640570      0.100135        5.718072       
58              486.031000      1882.115064     323.487071      0.100136        5.818208       
59              486.489000      1930.829640     326.244971      0.100135        5.918343       
60              486.245000      1979.519783     328.907040      0.100135        6.018478       
61              486.275000      2028.212444     331.482441      0.100134        6.118612       
62              486.494000      2076.927521     333.978456      0.100135        6.218747       
63              486.494000      2125.642111     336.395338      0.100134        6.318881       
64              486.581000      2174.366386     338.738219      0.100136        6.419017       
65              486.668000      2223.098400     341.010417      0.100134        6.519151       
66              486.730000      2271.837108     343.214828      0.100135        6.619286       
67              486.906000      2320.605126     345.356667      0.100159        6.719445       
68              486.926000      2369.362974     347.435373      0.100134        6.819579       
69              486.901000      2418.172852     349.455781      0.100246        6.919825       
70              487.296000      2466.967262     351.421940      0.100133        7.019958       
71              487.279000      2515.796029     353.333951      0.100207        7.120165       
72              487.038000      2564.565092     355.188212      0.100134        7.220299       
73              487.147000      2613.344583     356.993219      0.100133        7.320432       
74              487.225000      2662.127499     358.750409      0.100124        7.420556       
75              487.160000      2710.908291     360.460098      0.100133        7.520689       
76              487.108000      2759.683876     362.124175      0.100133        7.620822       
77              487.108000      2808.458975     363.745073      0.100132        7.720954       
78              487.191000      2857.243358     365.325561      0.100134        7.821088       
79              487.220000      2906.039903     366.866745      0.100153        7.921241       
80              487.360000      2954.840722     368.370895      0.100133        8.021374       
81              487.192000      3003.624718     369.835884      0.100133        8.121507       
82              487.298000      3052.418842     371.266464      0.100132        8.221639       
83              487.582000      3101.241890     372.666049      0.100133        8.321772       
84              487.599000      3150.067128     374.032568      0.100134        8.421906       
85              487.786000      3198.910604     375.369158      0.100133        8.522039       
86              487.882000      3247.786623     376.676424      0.100180        8.622219       
87              488.019000      3296.653917     377.954655      0.100134        8.722353       
88              488.003000      3345.518634     379.203664      0.100132        8.822485       
89              488.086000      3394.392149     380.425582      0.100133        8.922618       
90              488.152000      3443.282524     381.621360      0.100154        9.022772       
91              488.354000      3492.188247     382.792985      0.100144        9.122916       
92              488.354000      3541.119365     383.939755      0.100196        9.223112       
93              488.369000      3590.013404     385.061163      0.100117        9.323229       
94              488.156000      3638.890512     386.156577      0.100126        9.423355       
95              488.186000      3687.773064     387.229326      0.100131        9.523486       
96              488.186000      3736.650246     388.279637      0.100120        9.623606       
97              488.062000      3785.519894     389.307144      0.100130        9.723736       
98              488.126000      3834.396439     390.314368      0.100131        9.823867       
99              488.251000      3883.285988     391.302537      0.100132        9.923999       
100             488.221000      3932.172045     392.270655      0.100131        10.024130      
101             488.255000      3981.048323     393.219707      0.100104        10.124234      
102             488.380000      4029.951766     394.151674      0.100134        10.224368      
103             488.097000      4078.826383     395.062811      0.100133        10.324501      
104             488.200000      4127.711802     395.957441      0.100134        10.424635      
105             488.537000      4176.630477     396.838246      0.100133        10.524768      
106             488.537000      4225.549641     397.702458      0.100134        10.624902      
107             488.709000      4274.480653     398.552046      0.100123        10.725025      
108             488.742000      4323.403238     399.386024      0.100099        10.825124      
109             488.742000      4372.342441     400.204997      0.100133        10.925257      
110             488.786000      4421.285561     401.009485      0.100132        11.025389      
111             488.816000      4470.232173     401.799769      0.100133        11.125522      
112             488.876000      4519.184794     402.576491      0.100133        11.225655      
113             488.842000      4568.133521     403.339169      0.100132        11.325787      
114             489.208000      4617.118896     404.091688      0.100132        11.425919      
115             489.208000      4666.104761     404.831139      0.100133        11.526052      
116             489.241000      4715.093930     405.558137      0.100133        11.626185      
117             489.300000      4764.088517     406.273216      0.100132        11.726317      
118             489.411000      4813.094220     406.977126      0.100132        11.826449      
119             489.340000      4862.089877     407.668578      0.100126        11.926575      
120             489.360000      4911.090961     408.348732      0.100133        12.026708      
121             489.542000      4960.109781     409.019149      0.100132        12.126840      
122             489.476000      5009.122481     409.678052      0.100133        12.226973      
123             489.547000      5058.141801     410.326821      0.100132        12.327105      
124             489.513000      5107.157717     410.964860      0.100132        12.427237      
125             489.547000      5156.172631     411.592916      0.100123        12.527360      
126             489.637000      5205.197536     412.211738      0.100125        12.627485      
127             489.716000      5254.229861     412.821439      0.100124        12.727609      
128             489.453000      5303.233895     413.419546      0.100120        12.827729      
129             489.453000      5352.268276     414.008750      0.100182        12.927911      
130             489.590000      5401.291902     414.589659      0.100132        13.028043      
131             489.497000      5450.306705     415.161002      0.100133        13.128176      
132             489.523000      5499.324111     415.723893      0.100133        13.228309      
133             489.586000      5548.356639     416.278898      0.100151        13.328460      
134             489.586000      5597.379864     416.825522      0.100132        13.428592      
135             489.622000      5646.407184     417.364325      0.100133        13.528725      
136             489.646000      5695.436417     417.895383      0.100132        13.628857      
137             489.321000      5744.433597     418.416329      0.100133        13.728990      
138             489.402000      5793.443292     418.930363      0.100142        13.829132      
139             489.775000      5842.480055     419.439582      0.100121        13.929253      
140             489.651000      5891.492651     419.940528      0.100097        14.029350      
141             489.853000      5940.516649     420.435720      0.100079        14.129429      
142             489.885000      5989.541891     420.924151      0.100075        14.229504      
143             489.979000      6038.594668     421.406594      0.100112        14.329616      
144             490.054000      6087.664755     421.882957      0.100132        14.429748      
145             490.133000      6136.743243     422.353304      0.100133        14.529881      
146             489.919000      6185.800302     422.815747      0.100133        14.630014      
147             490.013000      6234.862854     423.272506      0.100125        14.730139      
148             490.352000      6283.957386     423.725369      0.100121        14.830260      
149             490.365000      6333.081171     424.172497      0.100178        14.930438      
150             490.365000      6382.183380     424.613473      0.100134        15.030572      
151             490.496000      6431.297235     425.049466      0.100131        15.130703      
152             490.535000      6480.415486     425.479988      0.100132        15.230835      
153             490.600000      6529.550548     425.905398      0.100153        15.330988      
154             490.606000      6578.676889     426.325246      0.100134        15.431122      
155             457.688000      6624.511596     426.527470      0.100144        15.531266      
156             424.621000      6667.039937     426.515255      0.100156        15.631422      
157             381.817000      6705.281200     426.230681      0.100156        15.731578      
158             358.575000      6741.190335     425.802723      0.100144        15.831722      
159             308.717000      6772.107108     425.066735      0.100146        15.931868      
160             272.179000      6799.362841     424.111768      0.100139        16.032007      
161             235.617000      6822.957763     422.941679      0.100141        16.132148      
162             225.611000      6845.551576     421.724249      0.100145        16.232293      
163             162.456000      6861.821707     420.134409      0.100151        16.332444      
164             159.065000      6877.755407     418.542965      0.100171        16.432615      
165             125.540000      6890.329243     416.767910      0.100158        16.532773      
166             125.494000      6902.900604     415.013659      0.100175        16.632948      
167             125.220000      6915.442639     413.279030      0.100160        16.733108      
168             125.155000      6927.979290     411.564503      0.100169        16.833277      
169             125.060000      6940.504800     409.869918      0.100156        16.933433      
170             124.997000      6953.024124     408.194874      0.100157        17.033590      
171             124.940000      6965.544986     406.538127      0.100215        17.133805      
172             124.865000      6978.051090     404.901153      0.100157        17.233962      
173             124.846000      6990.553294     403.283244      0.100141        17.334103      
