#timestep       power           acc-energy      avg-power       dt              acc-time       
1               123.731000      12.395867       123.731000      0.100184        0.100184       
2               123.731000      26.316594       123.731000      0.112508        0.212692       
3               123.665000      38.706467       123.709866      0.100189        0.312881       
4               123.692000      51.094097       123.705534      0.100149        0.413030       
5               123.612000      63.475693       123.687278      0.100165        0.513195       
6               123.576000      75.851211       123.669109      0.100145        0.613340       
7               123.511000      88.222814       123.646913      0.100166        0.713506       
8               123.452000      100.589371      123.622917      0.100173        0.813679       
9               123.375000      112.945624      123.595746      0.100152        0.913831       
10              123.251000      125.290568      123.561692      0.100161        1.013992       
11              123.167000      137.630177      123.526202      0.100186        1.114178       
12              122.373000      149.885833      123.431093      0.100150        1.214328       
13              122.366000      162.140543      123.349945      0.100148        1.314476       
14              141.011000      176.269140      124.600801      0.100195        1.414671       
15              162.816000      192.574999      127.127315      0.100149        1.514820       
16              182.937000      210.893762      130.587850      0.100137        1.614957       
17              202.961000      231.216856      134.813249      0.100133        1.715090       
18              222.869000      253.533620      139.670707      0.100134        1.815224       
19              231.934000      276.757403      144.494051      0.100131        1.915355       
20              262.883000      303.081193      150.375935      0.100135        2.015490       
21              283.009000      331.420016      156.653553      0.100134        2.115624       
22              302.996000      361.759914      163.266962      0.100133        2.215757       
23              323.061000      394.108981      170.176037      0.100133        2.315890       
24              322.989000      426.450839      176.509429      0.100133        2.416023       
25              322.656000      458.759998      182.325592      0.100135        2.516158       
26              322.519000      491.054148      187.691095      0.100131        2.616289       
27              322.527000      523.350389      192.661524      0.100135        2.716424       
28              322.623000      555.654952      197.281769      0.100131        2.816555       
29              322.623000      587.960161      201.584867      0.100133        2.916688       
30              322.656000      620.268674      205.603407      0.100133        3.016821       
31              322.421000      652.553979      209.356240      0.100134        3.116955       
32              322.502000      684.848362      212.878078      0.100137        3.217092       
33              322.442000      717.137703      216.185574      0.100140        3.317232       
34              322.442000      749.424788      219.299018      0.100133        3.417365       
35              322.506000      781.718282      222.237022      0.100133        3.517498       
36              322.536000      814.014134      225.013160      0.100131        3.617629       
37              322.633000      846.320344      227.642421      0.100133        3.717762       
38              322.630000      878.625931      230.133663      0.100132        3.817894       
39              322.666000      910.935123      232.498489      0.100132        3.918026       
40              322.595000      943.237206      234.743682      0.100132        4.018158       
41              322.935000      975.572687      236.887922      0.100130        4.118288       
42              322.875000      1007.902161     238.928945      0.100130        4.218418       
43              323.001000      1040.262016     240.879288      0.100185        4.318603       
44              323.034000      1072.608057     242.740978      0.100132        4.418735       
45              323.034000      1104.955066     244.520215      0.100135        4.518870       
46              323.067000      1137.304411     246.222974      0.100132        4.619002       
47              323.067000      1169.654079     247.853490      0.100133        4.719135       
48              323.138000      1202.011503     249.417755      0.100135        4.819270       
49              323.034000      1234.359481     250.916265      0.100138        4.919408       
50              323.171000      1266.720209     252.357677      0.100135        5.019543       
51              323.067000      1299.070200     253.740656      0.100134        5.119677       
52              323.204000      1331.433263     255.073177      0.100132        5.219809       
53              323.213000      1363.796904     256.355693      0.100131        5.319940       
54              323.213000      1396.161191     257.590846      0.100133        5.420073       
55              323.244000      1428.528583     258.781753      0.100133        5.520206       
56              323.273000      1460.898878     259.930741      0.100133        5.620339       
57              323.243000      1493.265846     261.038968      0.100132        5.720471       
58              323.100000      1525.618819     262.106616      0.100133        5.820604       
59              323.179000      1557.978732     263.139457      0.100130        5.920734       
60              323.243000      1590.345377     264.139019      0.100131        6.020865       
61              323.213000      1622.709664     265.105407      0.100133        6.120998       
62              323.277000      1655.080037     266.041706      0.100132        6.221130       
63              323.240000      1687.447027     266.947765      0.100133        6.321263       
64              323.274000      1719.817100     267.826088      0.100132        6.421395       
65              323.240000      1752.183767     268.676917      0.100132        6.521527       
66              323.306000      1784.556397     269.502996      0.100130        6.621657       
67              323.236000      1816.922664     270.303436      0.100132        6.721789       
68              323.332000      1849.298221     271.081781      0.100131        6.821920       
69              323.334000      1881.674624     271.837651      0.100133        6.922053       
70              323.400000      1914.057313     272.572898      0.100132        7.022185       
71              323.423000      1946.442305     273.287795      0.100132        7.122317       
72              323.467000      1978.832996     273.983506      0.100136        7.222453       
73              323.501000      2011.227739     274.660669      0.100138        7.322591       
74              323.483000      2043.621327     275.319330      0.100140        7.422731       
75              323.566000      2076.023226     275.961561      0.100140        7.522871       
76              323.397000      2108.407879     276.584693      0.100139        7.623010       
77              323.419000      2140.795057     277.191956      0.100140        7.723150       
78              323.369000      2173.177229     277.783034      0.100140        7.823290       
79              323.473000      2205.569492     278.360479      0.100139        7.923429       
80              323.489000      2237.964004     278.923721      0.100141        8.023570       
81              323.474000      2270.357337     279.472898      0.100142        8.123712       
82              323.519000      2302.754853     280.009243      0.100141        8.223853       
83              323.519000      2335.151399     280.532667      0.100138        8.323991       
84              323.605000      2367.557203     281.044680      0.100140        8.424131       
85              323.514000      2399.954219     281.543599      0.100141        8.524272       
86              323.484000      2432.363757     282.030814      0.100189        8.624461       
87              323.571000      2464.766157     282.507608      0.100140        8.724601       
88              323.637000      2497.175166     282.974329      0.100140        8.824741       
89              323.703000      2529.590137     283.431309      0.100138        8.924879       
90              323.703000      2562.005432     283.878152      0.100139        9.025018       
91              323.703000      2594.421698     284.315201      0.100142        9.125160       
92              323.670000      2626.834012     284.742394      0.100140        9.225300       
93              323.735000      2659.252835     285.161111      0.100140        9.325440       
94              323.667000      2691.665172     285.570213      0.100141        9.425581       
95              323.774000      2724.088548     285.971841      0.100142        9.525723       
96              323.708000      2756.504343     286.364415      0.100139        9.625862       
97              323.731000      2788.922442     286.749142      0.100139        9.726001       
98              323.708000      2821.341798     287.125834      0.100150        9.826151       
99              323.732000      2853.759673     287.495123      0.100138        9.926289       
100             323.773000      2886.182625     287.857455      0.100141        10.026430      
101             323.791000      2918.607379     288.212800      0.100141        10.126571      
102             323.871000      2951.040469     288.561972      0.100142        10.226713      
103             323.756000      2983.461719     288.903253      0.100141        10.326854      
104             323.801000      3015.886827     289.238405      0.100139        10.426993      
105             323.702000      3048.302669     289.566246      0.100141        10.527134      
106             323.768000      3080.725444     289.888532      0.100142        10.627276      
107             323.786000      3113.149374     290.204964      0.100140        10.727416      
108             323.786000      3145.573952     290.515549      0.100142        10.827558      
109             323.800000      3177.999931     290.820569      0.100142        10.927700      
110             323.786000      3210.424185     291.119920      0.100141        11.027841      
111             323.801000      3242.850265     291.414020      0.100142        11.127983      
112             323.726000      3275.268510     291.702203      0.100141        11.228124      
113             323.726000      3307.687079     291.985294      0.100142        11.328266      
114             323.851000      3340.118166     292.264519      0.100142        11.428408      
115             323.880000      3372.551509     292.539139      0.100140        11.528548      
116             323.940000      3404.991185     292.809549      0.100141        11.628689      
117             323.937000      3437.432828     293.075335      0.100148        11.728837      
118             323.970000      3469.881663     293.336930      0.100160        11.828997      
119             323.940000      3502.327169     293.593878      0.100159        11.929156      
120             324.002000      3534.781154     293.847081      0.100166        12.029322      
121             323.815000      3567.216407     294.094558      0.100166        12.129488      
122             323.898000      3599.659002     294.338653      0.100163        12.229651      
123             323.865000      3632.099912     294.578526      0.100168        12.329819      
124             323.833000      3664.533406     294.814245      0.100155        12.429974      
125             323.845000      3696.971016     295.046313      0.100164        12.530138      
126             323.815000      3729.400765     295.274428      0.100149        12.630287      
127             323.845000      3761.845176     295.499269      0.100185        12.730472      
128             323.800000      3794.278927     295.720207      0.100166        12.830638      
129             323.866000      3826.725118     295.938272      0.100184        12.930822      
130             323.767000      3859.152002     296.152161      0.100155        13.030977      
131             323.970000      3891.595978     296.364315      0.100145        13.131122      
132             323.937000      3924.032761     296.572983      0.100133        13.231255      
133             323.940000      3956.477296     296.778585      0.100156        13.331411      
134             324.002000      3988.921236     296.981542      0.100135        13.431546      
135             324.001000      4021.374796     297.181546      0.100165        13.531711      
136             323.968000      4053.818248     297.378328      0.100144        13.631855      
137             324.001000      4086.261764     297.572461      0.100134        13.731989      
138             323.969000      4118.701752     297.763550      0.100133        13.832122      
139             323.939000      4151.149426     297.951738      0.100166        13.932288      
140             323.999000      4183.599546     298.137648      0.100155        14.032443      
141             324.029000      4216.045865     298.321096      0.100134        14.132577      
142             324.093000      4248.508965     298.502472      0.100166        14.232743      
143             324.093000      4280.964934     298.681273      0.100144        14.332887      
144             324.106000      4313.422205     298.857683      0.100144        14.433031      
145             324.064000      4345.872678     299.031359      0.100136        14.533167      
146             324.129000      4378.328039     299.203094      0.100131        14.633298      
147             324.039000      4410.779897     299.371912      0.100148        14.733446      
148             324.039000      4443.227218     299.538427      0.100134        14.833580      
149             324.098000      4475.684012     299.703122      0.100145        14.933725      
150             324.078000      4508.138480     299.865489      0.100144        15.033869      
151             324.078000      4540.592623     300.025705      0.100143        15.134012      
152             324.098000      4573.049741     300.183951      0.100146        15.234158      
153             324.098000      4605.506211     300.340127      0.100144        15.334302      
154             324.098000      4637.963005     300.494278      0.100145        15.434447      
155             324.098000      4670.429522     300.646486      0.100175        15.534622      
156             324.127000      4702.889221     300.796886      0.100145        15.634767      
157             324.093000      4735.341949     300.945138      0.100134        15.734901      
158             324.204000      4767.809035     301.092231      0.100144        15.835045      
159             324.183000      4800.271099     301.237331      0.100135        15.935180      
160             324.218000      4832.739911     301.380852      0.100145        16.035325      
161             324.276000      4865.211288     301.522937      0.100135        16.135460      
162             324.314000      4897.689065     301.663515      0.100143        16.235603      
163             324.040000      4930.136487     301.800677      0.100134        16.335737      
164             324.111000      4962.594907     301.936617      0.100146        16.435883      
165             324.012000      4995.042764     302.070308      0.100144        16.536027      
166             324.045000      5027.494251     302.202589      0.100145        16.636172      
167             324.045000      5059.942173     302.333273      0.100134        16.736306      
168             324.038000      5092.389718     302.462362      0.100135        16.836441      
169             324.083000      5124.842093     302.590192      0.100136        16.936577      
170             324.012000      5157.299348     302.716149      0.100173        17.036750      
171             324.073000      5189.762388     302.840988      0.100172        17.136922      
172             324.013000      5222.206458     302.963979      0.100132        17.237054      
173             324.043000      5254.653531     303.085722      0.100132        17.337186      
174             324.228000      5287.122372     303.207141      0.100142        17.437328      
175             324.281000      5319.592953     303.327463      0.100131        17.537459      
176             324.319000      5352.067663     303.446636      0.100132        17.637591      
177             324.286000      5384.541663     303.564287      0.100140        17.737731      
178             324.357000      5417.024395     303.681021      0.100145        17.837876      
179             324.286000      5449.496773     303.796044      0.100135        17.938011      
180             324.357000      5481.975613     303.910181      0.100133        18.038144      
181             324.232000      5514.445826     304.022382      0.100145        18.138289      
182             324.232000      5546.911501     304.133335      0.100131        18.238420      
183             324.188000      5579.372769     304.242836      0.100131        18.338551      
184             324.220000      5611.850211     304.351365      0.100171        18.438722      
185             324.292000      5644.322866     304.459071      0.100134        18.538856      
186             324.292000      5676.795846     304.565620      0.100135        18.638991      
187             324.292000      5709.269474     304.671032      0.100137        18.739128      
188             324.292000      5741.743102     304.775324      0.100137        18.839265      
189             324.292000      5774.217702     304.878517      0.100140        18.939405      
190             324.232000      5806.696995     304.980341      0.100173        19.039578      
191             324.232000      5839.168829     305.081077      0.100150        19.139728      
192             324.232000      5871.639043     305.180759      0.100145        19.239873      
193             324.319000      5904.125429     305.279882      0.100168        19.340041      
194             324.390000      5936.610492     305.378323      0.100142        19.440183      
195             324.416000      5969.109189     305.475922      0.100176        19.540359      
196             324.387000      6001.592979     305.572342      0.100139        19.640498      
197             324.387000      6034.077742     305.667787      0.100142        19.740640      
198             324.357000      6066.559176     305.762116      0.100141        19.840781      
199             324.428000      6099.048369     305.855855      0.100143        19.940924      
200             324.325000      6131.526599     305.948142      0.100141        20.041065      
201             324.461000      6164.018773     306.040188      0.100142        20.141207      
202             324.423000      6196.506816     306.131134      0.100141        20.241348      
203             324.382000      6228.994647     306.220994      0.100153        20.341501      
204             324.417000      6261.488254     306.310150      0.100160        20.441661      
205             324.319000      6293.965234     306.397941      0.100139        20.541800      
206             324.456000      6326.455284     306.485544      0.100137        20.641937      
207             324.352000      6358.936218     306.571801      0.100141        20.742078      
