#timestep       power           acc-energy      avg-power       dt              acc-time       
1               120.129000      12.031400       120.129000      0.100154        0.100154       
2               120.129000      26.196531       120.129000      0.117916        0.218070       
3               120.065000      38.213357       120.108867      0.100086        0.318156       
4               119.994000      50.224396       120.081377      0.100097        0.418253       
5               119.974000      62.235833       120.060638      0.100117        0.518370       
6               119.850000      74.236893       120.026536      0.100134        0.618504       
7               119.790000      86.237934       119.993564      0.100184        0.718688       
8               119.683000      98.222152       119.955585      0.100133        0.818821       
9               119.685000      110.206810      119.926100      0.100135        0.918956       
10              119.449000      122.167477      119.879222      0.100132        1.019088       
11              119.346000      134.118189      119.831516      0.100135        1.119223       
12              119.346000      146.068662      119.791645      0.100133        1.219356       
13              119.346000      158.019254      119.757826      0.100134        1.319490       
14              119.293000      169.967522      119.725032      0.100159        1.419649       
15              119.314000      181.914671      119.697951      0.100132        1.519781       
16              119.326000      193.863141      119.674959      0.100133        1.619914       
17              119.326000      205.811492      119.654644      0.100132        1.720046       
18              119.300000      217.757479      119.635134      0.100134        1.820180       
19              119.311000      229.704447      119.618233      0.100133        1.920313       
20              119.281000      241.648531      119.601519      0.100134        2.020447       
21              120.768000      253.741634      119.656601      0.100135        2.120582       
22              143.027000      268.063786      120.710413      0.100136        2.220718       
23              164.588000      284.544312      122.603491      0.100132        2.320850       
24              193.205000      303.890701      125.523630      0.100134        2.420984       
25              217.756000      325.695916      129.186995      0.100136        2.521120       
26              231.157000      348.842591      133.082330      0.100134        2.621254       
27              267.288000      375.607742      138.020549      0.100136        2.721390       
28              292.241000      404.872464      143.493993      0.100139        2.821529       
29              317.178000      436.632765      149.446656      0.100134        2.921663       
30              321.912000      468.866780      155.161626      0.100133        3.021796       
31              365.586000      505.474003      161.910794      0.100133        3.121929       
32              366.055000      542.130018      168.255352      0.100138        3.222067       
33              366.380000      578.817113      174.227000      0.100134        3.322201       
34              367.543000      615.620664      179.883227      0.100134        3.422335       
35              368.342000      652.520797      185.242925      0.100179        3.522514       
36              368.857000      689.455924      190.318221      0.100134        3.622648       
37              368.927000      726.397691      195.122327      0.100133        3.722781       
38              369.051000      763.351875      199.678014      0.100133        3.822914       
39              369.146000      800.315571      204.003564      0.100133        3.923047       
40              369.206000      837.285276      208.115291      0.100133        4.023180       
41              369.244000      874.258785      212.028237      0.100133        4.123313       
42              369.282000      911.236100      215.756541      0.100133        4.223446       
43              369.314000      948.236931      219.314801      0.100188        4.323634       
44              369.451000      985.249640      222.714828      0.100183        4.423817       
45              369.521000      1022.250517     225.964200      0.100132        4.523949       
46              369.531000      1059.252765     229.073093      0.100133        4.624082       
47              369.860000      1096.288326     232.057198      0.100134        4.724216       
48              369.860000      1133.323517     234.917399      0.100133        4.824349       
49              369.926000      1170.365318     237.662625      0.100133        4.924482       
50              369.988000      1207.410366     240.299463      0.100125        5.024607       
51              369.646000      1244.421172     242.826585      0.100125        5.124732       
52              369.675000      1281.434881     245.257407      0.100125        5.224857       
53              369.713000      1318.455723     247.597737      0.100134        5.324991       
54              369.766000      1355.481502     249.852630      0.100133        5.425124       
55              369.779000      1392.508582     252.026029      0.100133        5.525257       
56              369.878000      1429.545576     254.123816      0.100133        5.625390       
57              369.878000      1466.582570     256.148228      0.100133        5.725523       
58              369.944000      1503.638380     258.104815      0.100166        5.825689       
59              370.034000      1540.691365     259.996184      0.100134        5.925823       
60              369.872000      1577.728128     261.822002      0.100134        6.025957       
61              370.347000      1614.812084     263.595880      0.100133        6.126090       
62              370.381000      1651.901297     265.313332      0.100138        6.226228       
63              370.372000      1688.988497     266.976223      0.100135        6.326363       
64              370.372000      1726.075697     268.587292      0.100135        6.426498       
65              370.397000      1763.165030     270.149294      0.100134        6.526632       
66              370.149000      1800.230641     271.660388      0.100137        6.626769       
67              370.149000      1837.295141     273.126451      0.100134        6.726903       
68              370.129000      1874.357268     274.549199      0.100133        6.827036       
69              370.064000      1911.412886     275.929876      0.100133        6.927169       
70              370.144000      1948.476515     277.272347      0.100133        7.027302       
71              370.297000      1985.555465     278.579246      0.100133        7.127435       
72              370.268000      2022.631881     279.849543      0.100134        7.227569       
73              370.331000      2059.714235     281.085971      0.100133        7.327702       
74              370.386000      2096.802467     282.289817      0.100134        7.427836       
75              370.416000      2133.893702     283.462036      0.100134        7.527970       
76              370.712000      2171.014578     284.607365      0.100134        7.628104       
77              370.778000      2208.141691     285.723858      0.100133        7.728237       
78              370.548000      2245.245774     286.808847      0.100133        7.828370       
79              370.647000      2282.379044     287.868224      0.100185        7.928555       
80              370.644000      2319.493110     288.900605      0.100134        8.028689       
81              370.582000      2356.600968     289.906788      0.100134        8.128823       
82              370.679000      2393.718168     290.889655      0.100133        8.228956       
83              370.712000      2430.838673     291.849285      0.100133        8.329089       
84              370.712000      2467.959548     292.786126      0.100134        8.429223       
85              370.745000      2505.083728     293.701357      0.100134        8.529357       
86              370.843000      2542.234780     294.596892      0.100180        8.629537       
87              370.810000      2579.365469     295.471097      0.100134        8.729671       
88              370.852000      2616.500363     296.325951      0.100134        8.829805       
89              371.095000      2653.659589     297.164358      0.100134        8.929939       
90              371.006000      2690.809904     297.983184      0.100134        9.030073       
91              371.095000      2727.969131     298.785025      0.100134        9.130207       
92              371.110000      2765.129860     299.569632      0.100134        9.230341       
93              370.946000      2802.271941     300.335593      0.100128        9.330469       
94              370.946000      2839.405490     301.085118      0.100105        9.430574       
95              371.040000      2876.559210     301.820097      0.100134        9.530708       
96              371.040000      2913.712929     302.539791      0.100134        9.630842       
97              371.040000      2950.866277     303.244667      0.100133        9.730975       
98              371.105000      2988.042463     303.936147      0.100177        9.831152       
99              371.076000      3025.199787     304.613097      0.100134        9.931286       
100             371.193000      3062.368827     305.277700      0.100134        10.031420      
101             371.235000      3099.542444     305.929588      0.100135        10.131555      
102             371.270000      3136.723278     306.569121      0.100145        10.231700      
103             371.305000      3173.903533     307.196528      0.100134        10.331834      
104             371.518000      3211.105116     307.813935      0.100134        10.431968      
105             371.583000      3248.317667     308.420291      0.100146        10.532114      
106             371.583000      3285.526131     309.015160      0.100135        10.632249      
107             371.713000      3322.747240     309.600136      0.100134        10.732383      
108             371.440000      3359.941013     310.171774      0.100134        10.832517      
109             371.459000      3397.137060     310.733119      0.100135        10.932652      
110             371.559000      3434.342749     311.285178      0.100134        11.032786      
111             371.588000      3471.551342     311.827566      0.100134        11.132920      
112             371.618000      3508.763310     312.360556      0.100135        11.233055      
113             371.648000      3545.977911     312.884389      0.100134        11.333189      
114             371.680000      3583.195716     313.399325      0.100134        11.433323      
115             371.718000      3620.417698     313.905656      0.100135        11.533458      
116             371.751000      3657.642613     314.403549      0.100134        11.633592      
117             371.647000      3694.857485     314.892062      0.100135        11.733727      
118             371.985000      3732.106203     315.375167      0.100135        11.833862      
119             371.946000      3769.350644     315.849833      0.100134        11.933996      
120             371.908000      3806.591280     316.316284      0.100134        12.034130      
121             371.940000      3843.835492     316.775305      0.100135        12.134265      
122             371.973000      3881.083008     317.227082      0.100135        12.234400      
123             371.804000      3918.313973     317.670156      0.100136        12.334536      
124             371.849000      3955.544239     318.106396      0.100122        12.434658      
125             371.879000      3992.782714     318.535966      0.100136        12.534794      
126             371.874000      4030.020317     318.958683      0.100135        12.634929      
127             371.874000      4067.257549     319.374749      0.100134        12.735063      
128             371.934000      4104.500788     319.784791      0.100134        12.835197      
129             371.973000      4141.763555     320.188954      0.100176        12.935373      
130             372.065000      4179.020284     320.587451      0.100135        13.035508      
131             372.093000      4216.294700     320.980241      0.100175        13.135683      
132             372.071000      4253.551657     321.366762      0.100134        13.235817      
133             372.305000      4290.832419     321.749240      0.100135        13.335952      
134             372.338000      4328.131750     322.126415      0.100176        13.436128      
135             372.241000      4365.405730     322.497136      0.100134        13.536262      
136             372.300000      4402.685619     322.862846      0.100134        13.636396      
137             372.333000      4439.968811     323.223464      0.100134        13.736530      
138             372.271000      4477.245796     323.578414      0.100134        13.836664      
139             372.365000      4514.532192     323.928939      0.100134        13.936798      
140             372.371000      4551.819190     324.274506      0.100134        14.036932      
141             372.397000      4589.109164     324.615365      0.100135        14.137067      
142             372.397000      4626.398765     324.951426      0.100134        14.237201      
143             372.359000      4663.681582     325.282501      0.100126        14.337327      
144             372.502000      4700.981325     325.609998      0.100133        14.437460      
145             372.544000      4738.282666     325.933251      0.100126        14.537586      
146             372.489000      4775.578499     326.251705      0.100126        14.637712      
147             372.534000      4812.888897     326.566222      0.100153        14.737865      
148             372.573000      4850.196494     326.876701      0.100135        14.838000      
149             372.544000      4887.500815     327.182820      0.100134        14.938134      
150             372.514000      4924.802504     327.484666      0.100135        15.038269      
151             372.544000      4962.106825     327.782714      0.100134        15.138403      
152             372.544000      4999.411519     328.076848      0.100135        15.238538      
153             372.672000      5036.730893     328.367992      0.100140        15.338678      
154             372.698000      5074.051753     328.655519      0.100137        15.438815      
155             372.668000      5111.368863     328.939141      0.100135        15.538950      
156             372.702000      5148.689005     329.219346      0.100134        15.639084      
157             372.791000      5186.018059     329.496552      0.100134        15.739218      
158             372.808000      5223.348815     329.770360      0.100134        15.839352      
159             372.911000      5260.689885     330.041376      0.100134        15.939486      
160             372.916000      5298.029591     330.309025      0.100129        16.039615      
161             372.946000      5335.370064     330.573524      0.100123        16.139738      
162             373.010000      5372.721420     330.835187      0.100135        16.239873      
163             373.006000      5410.072749     331.093621      0.100136        16.340009      
164             372.911000      5447.414192     331.348326      0.100135        16.440144      
165             373.010000      5484.765175     331.600544      0.100134        16.540278      
166             372.939000      5522.109049     331.849299      0.100134        16.640412      
167             372.868000      5559.445813     332.094653      0.100134        16.740546      
168             372.911000      5596.794342     332.337393      0.100154        16.840700      
169             372.944000      5634.138716     332.577411      0.100134        16.940834      
170             372.944000      5671.483091     332.814608      0.100134        17.040968      
171             373.016000      5708.852579     333.049567      0.100182        17.141150      
172             373.048000      5746.209606     333.281884      0.100140        17.241290      
173             373.014000      5783.560990     333.511307      0.100134        17.341424      
174             373.112000      5820.922560     333.738662      0.100135        17.441559      
175             373.042000      5858.277121     333.963021      0.100135        17.541694      
176             373.145000      5895.641622     334.185416      0.100134        17.641828      
177             373.128000      5933.004421     334.405204      0.100134        17.741962      
178             373.178000      5970.372600     334.622808      0.100135        17.842097      
179             373.093000      6007.731895     334.837507      0.100134        17.942231      
180             373.139000      6045.095796     335.050078      0.100134        18.042365      
181             373.133000      6082.459095     335.260269      0.100134        18.142499      
182             373.083000      6119.817762     335.467880      0.100135        18.242634      
183             373.083000      6157.176428     335.673225      0.100135        18.342769      
184             373.160000      6194.542804     335.876758      0.100135        18.442904      
185             373.172000      6231.910009     336.078156      0.100134        18.543038      
186             373.186000      6269.278616     336.277465      0.100134        18.643172      
187             373.195000      6306.648124     336.474693      0.100134        18.743306      
188             373.213000      6344.020181     336.669924      0.100136        18.843442      
189             373.249000      6381.395097     336.863277      0.100134        18.943576      
190             373.343000      6418.779051     337.055090      0.100133        19.043709      
191             373.367000      6456.165783     337.245024      0.100134        19.143843      
192             373.397000      6493.556638     337.433142      0.100137        19.243980      
193             373.490000      6530.956059     337.619791      0.100135        19.344115      
194             373.426000      6568.349819     337.804191      0.100137        19.444252      
195             373.441000      6605.744706     337.986777      0.100136        19.544388      
196             373.516000      6643.149346     338.167894      0.100142        19.644530      
197             373.506000      6680.550743     338.347113      0.100136        19.744666      
198             373.546000      6717.955771     338.524723      0.100135        19.844801      
199             373.606000      6755.367555     338.700855      0.100137        19.944938      
200             373.606000      6792.778592     338.875223      0.100135        20.045073      
201             373.639000      6830.194054     339.048028      0.100138        20.145211      
202             373.606000      6867.605465     339.218956      0.100136        20.245347      
203             373.606000      6905.016875     339.388201      0.100136        20.345483      
204             373.606000      6942.428286     339.555789      0.100136        20.445619      
205             373.704000      6979.849509     339.722220      0.100136        20.545755      
206             373.329000      7017.233555     339.885221      0.100137        20.645892      
207             373.170000      7054.601306     340.045878      0.100136        20.746028      
