#timestep       power           acc-energy      avg-power       dt              acc-time       
1               119.634000      11.980627       119.634000      0.100144        0.100144       
2               119.759000      25.078549       119.699252      0.109369        0.209513       
3               119.677000      37.061448       119.692056      0.100127        0.309640       
4               119.559000      49.033011       119.659543      0.100131        0.409771       
5               119.436000      60.992257       119.615645      0.100131        0.509902       
6               119.237000      72.931458       119.553495      0.100130        0.610032       
7               119.189000      84.865971       119.502102      0.100131        0.710163       
8               118.933000      96.774733       119.431777      0.100130        0.810293       
9               118.798000      108.672233      119.362061      0.100149        0.910442       
10              118.830000      120.567948      119.309354      0.100107        1.010549       
11              118.700000      132.453617      119.254418      0.100132        1.110681       
12              118.738000      144.342971      119.211712      0.100131        1.210812       
13              138.239000      158.184981      120.665033      0.100131        1.310943       
14              167.241000      174.930989      123.970103      0.100131        1.411074       
15              196.819000      194.638476      128.796956      0.100130        1.511204       
16              226.318000      217.299697      134.857017      0.100130        1.611334       
17              255.896000      242.922819      141.938526      0.100131        1.711465       
18              270.006000      269.958790      149.017104      0.100131        1.811596       
19              296.864000      299.683783      156.760845      0.100130        1.911726       
20              323.496000      332.075760      165.059326      0.100131        2.011857       
21              350.387000      367.160011      173.845772      0.100130        2.111987       
22              377.367000      404.946146      183.058113      0.100131        2.212118       
23              404.124000      445.411082      192.631189      0.100130        2.312248       
24              413.296000      486.794824      201.790359      0.100131        2.412379       
25              413.695000      528.218104      210.235308      0.100130        2.512509       
26              413.756000      569.647492      218.035286      0.100130        2.612639       
27              413.852000      611.086907      225.263073      0.100131        2.712770       
28              414.356000      652.576373      231.994160      0.100130        2.812900       
29              414.732000      694.103488      238.275434      0.100130        2.913030       
30              415.173000      735.674761      244.153899      0.100130        3.013160       
31              415.263000      777.255460      249.657183      0.100131        3.113291       
32              414.902000      818.799598      254.806201      0.100130        3.213421       
33              414.804000      860.333922      259.641069      0.100130        3.313551       
34              415.004000      901.889103      264.198258      0.100132        3.413683       
35              415.237000      943.467199      268.502317      0.100131        3.513814       
36              415.379000      985.059513      272.571805      0.100131        3.613945       
37              415.372000      1026.651127     276.421680      0.100131        3.714076       
38              415.205000      1068.226019     280.065036      0.100131        3.814207       
39              414.566000      1109.736927     283.505647      0.100131        3.914338       
40              414.566000      1151.248250     286.774655      0.100132        4.014470       
41              414.734000      1192.771003     289.888250      0.100119        4.114589       
42              414.799000      1234.314367     292.856447      0.100153        4.214742       
43              415.350000      1275.926623     295.700559      0.100186        4.314928       
44              415.591000      1317.541827     298.419712      0.100135        4.415063       
45              415.703000      1359.166584     301.020639      0.100131        4.515194       
46              415.592000      1400.780643     303.506327      0.100132        4.615326       
47              415.592000      1442.394285     305.886425      0.100131        4.715457       
48              415.986000      1484.047795     308.175759      0.100132        4.815589       
49              416.341000      1525.736020     310.379015      0.100130        4.915719       
50              416.383000      1567.428866     312.495163      0.100131        5.015850       
51              416.260000      1609.109812     314.526089      0.100132        5.115982       
52              416.043000      1650.774438     316.475124      0.100145        5.216127       
53              415.563000      1692.399722     318.342071      0.100166        5.316293       
54              415.617000      1734.033739     320.141107      0.100174        5.416467       
55              415.703000      1775.658912     321.875654      0.100132        5.516599       
56              415.800000      1817.292966     323.550053      0.100130        5.616729       
57              415.871000      1858.934545     325.167058      0.100131        5.716860       
58              415.774000      1900.566411     326.726724      0.100131        5.816991       
59              415.562000      1942.177466     328.230031      0.100132        5.917123       
60              415.737000      1983.805627     329.686204      0.100131        6.017254       
61              416.110000      2025.471138     331.100811      0.100131        6.117385       
62              416.549000      2067.180605     332.476926      0.100131        6.217516       
63              416.450000      2108.880160     333.807850      0.100131        6.317647       
64              416.851000      2150.619868     335.103500      0.100131        6.417778       
65              416.542000      2192.328635     336.354594      0.100131        6.517909       
66              416.325000      2234.015673     337.564547      0.100131        6.618040       
67              416.413000      2275.711940     338.739755      0.100132        6.718172       
68              416.580000      2317.439925     339.883304      0.100168        6.818340       
69              416.716000      2359.166532     340.995314      0.100132        6.918472       
70              416.586000      2400.879705     342.073730      0.100131        7.018603       
71              416.483000      2442.582564     343.120359      0.100131        7.118734       
72              416.113000      2484.248791     344.132831      0.100132        7.218866       
73              415.749000      2525.877738     345.112600      0.100130        7.318996       
74              416.115000      2567.544165     346.070881      0.100132        7.419128       
75              416.168000      2609.229217     347.004640      0.100164        7.519292       
76              416.719000      2650.961541     347.920921      0.100145        7.619437       
77              416.842000      2692.700348     348.814901      0.100131        7.719568       
78              416.842000      2734.439571     349.685994      0.100132        7.819700       
79              416.596000      2776.153328     350.531934      0.100130        7.919830       
80              416.640000      2817.872741     351.357324      0.100133        8.019963       
81              417.111000      2859.638066     352.168142      0.100130        8.120093       
82              417.349000      2901.428056     352.962122      0.100132        8.220225       
83              417.453000      2943.228460     353.738242      0.100132        8.320357       
84              417.330000      2985.016130     354.494434      0.100131        8.420488       
85              417.089000      3026.779669     355.230021      0.100131        8.520619       
86              416.852000      3068.539485     355.946107      0.100179        8.620798       
87              416.657000      3110.260600     356.643184      0.100133        8.720931       
88              416.922000      3152.007834     357.327437      0.100132        8.821063       
89              416.976000      3193.760475     357.996936      0.100132        8.921195       
90              417.296000      3235.545158     358.655124      0.100132        9.021327       
91              416.863000      3277.286067     359.294103      0.100131        9.121458       
92              416.922000      3319.033301     359.919851      0.100132        9.221590       
93              417.031000      3360.791449     360.533327      0.100132        9.321722       
94              417.296000      3402.575715     361.136574      0.100131        9.421853       
95              417.464000      3444.377220     361.728906      0.100132        9.521985       
96              417.632000      3486.195130     362.310653      0.100131        9.622116       
97              417.632000      3528.013457     362.880422      0.100132        9.722248       
98              417.316000      3569.777608     363.435057      0.100078        9.822326       
99              416.863000      3611.505594     363.974052      0.100100        9.922426       
100             417.040000      3653.252132     364.504058      0.100102        10.022528      
101             416.976000      3694.993098     365.022960      0.100104        10.122632      
102             417.323000      3736.775059     365.535173      0.100119        10.222751      
103             417.276000      3778.548142     366.036945      0.100109        10.322860      
104             417.192000      3820.310313     366.528243      0.100103        10.422963      
105             416.927000      3862.045539     367.007667      0.100102        10.523065      
106             417.127000      3903.814552     367.480096      0.100135        10.623200      
107             417.496000      3945.606736     367.946994      0.100102        10.723302      
108             417.895000      3987.439279     368.408951      0.100103        10.823405      
109             418.131000      4029.295447     368.864603      0.100103        10.923508      
110             418.128000      4071.150896     369.311949      0.100102        11.023610      
111             418.198000      4113.013770     369.751878      0.100103        11.123713      
112             417.949000      4154.852555     370.181747      0.100105        11.223818      
113             417.998000      4196.708785     370.604575      0.100135        11.323953      
114             418.224000      4238.587227     371.021967      0.100134        11.424087      
115             418.392000      4280.482073     371.433561      0.100133        11.524220      
116             418.464000      4322.384547     371.838689      0.100134        11.624354      
117             417.959000      4364.236036     372.232579      0.100133        11.724487      
118             417.927000      4406.134471     372.619988      0.100253        11.824740      
119             416.452000      4447.834643     372.988041      0.100132        11.924872      
120             416.711000      4489.561165     373.352125      0.100133        12.025005      
121             417.143000      4531.330528     373.713759      0.100132        12.125137      
122             417.265000      4573.112107     374.070469      0.100132        12.225269      
123             417.634000      4614.930635     374.424381      0.100132        12.325401      
124             417.418000      4656.728369     374.770854      0.100134        12.425535      
125             417.196000      4698.503039     375.110007      0.100132        12.525667      
126             417.379000      4740.296033     375.445232      0.100132        12.625799      
127             417.430000      4782.094134     375.775582      0.100132        12.725931      
128             417.679000      4823.917167     376.102719      0.100132        12.826063      
129             417.649000      4865.754738     376.424689      0.100174        12.926237      
130             418.779000      4907.687917     376.750261      0.100132        13.026369      
131             418.420000      4949.585567     377.068130      0.100133        13.126502      
132             417.943000      4991.435871     377.377579      0.100134        13.226636      
133             418.009000      5033.291948     377.682867      0.100132        13.326768      
134             418.177000      5075.164848     377.984855      0.100132        13.426900      
135             418.481000      5117.068187     378.284622      0.100132        13.527032      
136             418.561000      5158.979537     378.580572      0.100132        13.627164      
137             418.678000      5200.907208     378.873089      0.100143        13.727307      
138             418.525000      5242.819976     379.160264      0.100144        13.827451      
139             414.832000      5284.357934     379.416725      0.100132        13.927583      
140             414.998000      5325.912513     379.670710      0.100132        14.027715      
141             415.268000      5367.494129     379.923008      0.100132        14.127847      
142             415.571000      5409.106084     380.173887      0.100132        14.227979      
143             415.683000      5450.729670     380.422045      0.100133        14.328112      
144             415.531000      5492.338036     380.665704      0.100133        14.428245      
145             414.700000      5533.862776     380.900274      0.100132        14.528377      
146             414.700000      5575.387102     381.131630      0.100131        14.628508      
147             415.002000      5616.942082     381.361896      0.100132        14.728640      
148             419.064000      5658.904217     381.616484      0.100133        14.828773      
149             418.566000      5700.824021     381.864361      0.100151        14.928924      
150             415.784000      5742.457720     382.090355      0.100133        15.029057      
151             415.784000      5784.091004     382.313355      0.100132        15.129189      
152             416.113000      5825.753902     382.535568      0.100124        15.229313      
153             416.244000      5867.433246     382.755752      0.100132        15.329445      
154             416.388000      5909.127009     382.974012      0.100132        15.429577      
155             416.630000      5950.845004     383.191018      0.100132        15.529709      
156             416.290000      5992.528955     383.403066      0.100132        15.629841      
157             416.290000      6034.213321     383.612415      0.100133        15.729974      
158             416.099000      6075.878146     383.817907      0.100132        15.830106      
159             416.099000      6117.542971     384.020814      0.100132        15.930238      
160             415.976000      6159.195480     384.220419      0.100132        16.030370      
161             416.310000      6200.881433     384.419619      0.100132        16.130502      
162             418.869000      6242.823624     384.632148      0.100132        16.230634      
163             418.680000      6284.746889     384.840913      0.100132        16.330766      
164             418.345000      6326.636611     385.045091      0.100132        16.430898      
165             418.421000      6368.533943     385.247256      0.100132        16.531030      
166             418.886000      6410.477417     385.449784      0.100131        16.631161      
167             418.914000      6452.424113     385.650058      0.100132        16.731293      
168             419.736000      6494.453538     385.852841      0.100133        16.831426      
169             419.564000      6536.464901     386.052204      0.100131        16.931557      
170             419.441000      6578.464787     386.248504      0.100133        17.031690      
171             419.000000      6620.438950     386.440016      0.100177        17.131867      
172             419.095000      6662.424306     386.629860      0.100181        17.232048      
173             419.401000      6704.426058     386.819215      0.100147        17.332195      
174             419.312000      6746.413026     387.005856      0.100133        17.432328      
175             419.627000      6788.444126     387.192221      0.100163        17.532491      
176             419.371000      6830.436583     387.374957      0.100132        17.632623      
177             418.951000      6872.386984     387.553259      0.100132        17.732755      
178             418.480000      6914.280598     387.726873      0.100109        17.832864      
179             418.713000      6956.207169     387.899890      0.100132        17.932996      
180             419.081000      6998.170587     388.073028      0.100132        18.033128      
181             419.150000      7040.140915     388.244635      0.100132        18.133260      
182             419.493000      7082.146008     388.416243      0.100133        18.233393      
183             419.092000      7124.110109     388.583783      0.100131        18.333524      
184             419.124000      7166.077833     388.749678      0.100132        18.433656      
185             418.732000      7208.006306     388.911663      0.100132        18.533788      
186             418.643000      7249.925867     389.071428      0.100132        18.633920      
187             419.007000      7291.881875     389.231431      0.100132        18.734052      
188             419.007000      7333.837465     389.389732      0.100131        18.834183      
189             419.194000      7375.818068     389.547370      0.100146        18.934329      
190             418.888000      7417.762161     389.701718      0.100132        19.034461      
191             418.494000      7459.667221     389.852391      0.100133        19.134594      
192             418.647000      7501.583414     390.002276      0.100123        19.234717      
193             418.588000      7543.497468     390.150317      0.100132        19.334849      
194             419.096000      7585.462388     390.299450      0.100132        19.434981      
195             419.664000      7627.484184     390.449965      0.100132        19.535113      
196             419.827000      7669.522301     390.599776      0.100132        19.635245      
197             419.426000      7711.519846     390.746031      0.100131        19.735376      
198             419.458000      7753.521434     390.890974      0.100133        19.835509      
199             419.724000      7795.549238     391.035796      0.100132        19.935641      
200             419.892000      7837.593863     391.180009      0.100132        20.035773      
201             420.196000      7879.669349     391.324301      0.100133        20.135906      
202             419.827000      7921.712504     391.465355      0.100144        20.236050      
203             419.762000      7963.744533     391.604685      0.100133        20.336183      
204             419.434000      8005.759656     391.741093      0.100171        20.436354      
205             419.129000      8047.732491     391.874646      0.100143        20.536497      
206             419.435000      8089.735971     392.008388      0.100143        20.636640      
207             419.568000      8131.748154     392.141465      0.100132        20.736772      
