#timestep       power           acc-energy      avg-power       dt              acc-time       
1               119.839000      12.003554       119.839000      0.100164        0.100164       
2               119.839000      25.101117       119.839000      0.109293        0.209457       
3               119.811000      37.097673       119.829944      0.100129        0.309586       
4               119.708000      49.084753       119.800141      0.100136        0.409722       
5               119.561000      61.056994       119.753174      0.100135        0.509857       
6               119.360000      73.008750       119.688633      0.100132        0.609989       
7               119.160000      84.940717       119.614091      0.100134        0.710123       
8               119.024000      96.859066       119.541166      0.100134        0.810257       
9               118.934000      108.768284      119.474384      0.100133        0.910390       
10              118.922000      120.676301      119.419648      0.100133        1.010523       
11              118.992000      132.591327      119.381093      0.100133        1.110656       
12              119.090000      144.516166      119.357019      0.100133        1.210789       
13              119.257000      156.457727      119.349379      0.100133        1.310922       
14              148.888000      171.366180      121.445515      0.100132        1.411054       
15              173.304000      188.719803      124.881751      0.100134        1.511188       
16              200.959000      208.842833      129.609540      0.100135        1.611323       
17              229.013000      231.774362      135.425332      0.100132        1.711455       
18              257.486000      257.557208      142.172066      0.100133        1.811588       
19              285.957000      286.190654      149.703228      0.100132        1.911720       
20              314.462000      317.678363      157.903446      0.100132        2.011852       
21              342.917000      352.015328      166.675187      0.100132        2.111984       
22              371.386000      389.202951      175.941475      0.100132        2.212116       
23              399.727000      429.228015      185.632424      0.100131        2.312247       
24              428.150000      472.099959      195.698837      0.100133        2.412380       
25              429.765000      515.133188      205.027155      0.100132        2.512512       
26              431.994000      558.389612      213.725870      0.100132        2.612644       
27              432.139000      601.644997      221.784984      0.100096        2.712740       
28              432.808000      644.980764      229.296573      0.100127        2.812867       
29              433.109000      688.349267      236.302529      0.100133        2.913000       
30              433.429000      731.749380      242.853410      0.100132        3.013132       
31              433.561000      775.163143      248.987203      0.100133        3.113265       
32              433.743000      818.594697      254.744340      0.100132        3.213397       
33              433.984000      862.050383      260.160808      0.100132        3.313529       
34              434.078000      905.515482      265.262275      0.100132        3.413661       
35              434.365000      949.010186      270.081262      0.100134        3.513795       
36              434.397000      992.510268      274.634309      0.100139        3.613934       
37              434.462000      1036.014251     278.943339      0.100133        3.714067       
38              434.429000      1079.514930     283.025256      0.100133        3.814200       
39              434.462000      1123.018479     286.899139      0.100132        3.914332       
40              434.429000      1166.519158     290.578983      0.100133        4.014465       
41              434.563000      1210.033255     294.082983      0.100133        4.114598       
42              434.686000      1253.559668     297.423410      0.100133        4.214731       
43              434.902000      1297.127716     300.615242      0.100179        4.314910       
44              435.236000      1340.709202     303.668436      0.100133        4.415043       
45              435.419000      1384.309013     306.590266      0.100133        4.515176       
46              435.631000      1427.935715     309.390269      0.100146        4.615322       
47              435.695000      1471.564034     312.072411      0.100135        4.715457       
48              435.789000      1515.200894     314.644912      0.100133        4.815590       
49              435.789000      1558.838190     317.112635      0.100134        4.915724       
50              435.982000      1602.493939     319.485635      0.100132        5.015856       
51              435.917000      1646.144052     321.764517      0.100134        5.115990       
52              435.853000      1689.787320     323.954654      0.100133        5.216123       
53              435.615000      1733.406322     326.057783      0.100132        5.316255       
54              435.431000      1777.006899     328.079751      0.100132        5.416387       
55              435.150000      1820.581079     330.023292      0.100136        5.516523       
56              435.126000      1864.151551     331.897049      0.100133        5.616656       
57              435.047000      1907.713677     333.703765      0.100132        5.716788       
58              435.125000      1951.284484     335.449656      0.100134        5.816922       
59              435.312000      1994.873145     337.139588      0.100132        5.917054       
60              435.396000      2038.470653     338.774689      0.100133        6.017187       
61              435.333000      2082.062287     340.355245      0.100134        6.117321       
62              435.404000      2125.660160     341.886004      0.100132        6.217453       
63              435.429000      2169.260973     343.368649      0.100133        6.317586       
64              435.596000      2212.878071     344.807620      0.100132        6.417718       
65              435.532000      2256.488761     346.201395      0.100132        6.517850       
66              435.429000      2300.090009     347.551461      0.100134        6.617984       
67              435.396000      2343.687517     348.860777      0.100133        6.718117       
68              435.151000      2387.260057     350.128025      0.100132        6.818249       
69              435.021000      2430.819579     351.356709      0.100132        6.918381       
70              435.009000      2474.378335     352.550175      0.100133        7.018514       
71              434.886000      2517.924340     353.708323      0.100132        7.118646       
72              434.950000      2561.487628     354.835508      0.100157        7.218803       
73              434.768000      2605.021817     355.929082      0.100132        7.318935       
74              434.816000      2648.561247     356.993796      0.100133        7.419068       
75              434.918000      2692.111326     358.031521      0.100134        7.519202       
76              435.038000      2735.673422     359.043547      0.100134        7.619336       
77              435.250000      2779.239770     360.031688      0.100095        7.719431       
78              435.309000      2822.818990     360.995438      0.100111        7.819542       
79              435.562000      2866.432684     361.938217      0.100132        7.919674       
80              435.449000      2910.035063     362.856042      0.100132        8.019806       
81              435.551000      2953.648091     363.752498      0.100133        8.119939       
82              435.519000      2997.257480     364.626714      0.100132        8.220071       
83              435.584000      3040.873377     365.480671      0.100132        8.320203       
84              435.766000      3084.507498     366.316482      0.100132        8.420335       
85              435.737000      3128.139151     367.132316      0.100133        8.520468       
86              435.796000      3171.795015     367.930213      0.100175        8.620643       
87              435.825000      3215.435480     368.709789      0.100133        8.720776       
88              435.889000      3259.081917     369.472385      0.100132        8.820908       
89              435.989000      3302.738804     370.218992      0.100133        8.921041       
90              436.105000      3346.406870     370.950304      0.100132        9.021173       
91              436.540000      3390.119366     371.670350      0.100134        9.121307       
92              436.633000      3433.840738     372.375761      0.100133        9.221440       
93              436.905000      3477.589347     373.068939      0.100133        9.321573       
94              437.074000      3521.354441     373.749172      0.100132        9.421705       
95              437.121000      3565.111564     374.415401      0.100103        9.521808       
96              437.222000      3608.892352     375.069020      0.100134        9.621942       
97              437.260000      3652.676945     375.709565      0.100134        9.722076       
98              437.190000      3696.454091     376.336330      0.100133        9.822209       
99              437.104000      3740.222189     376.949572      0.100132        9.922341       
100             436.952000      3783.975066     377.549041      0.100132        10.022473      
101             436.785000      3827.711659     378.135004      0.100133        10.122606      
102             436.765000      3871.446248     378.709292      0.100133        10.222739      
103             436.671000      3915.171862     379.271532      0.100134        10.322873      
104             436.476000      3958.877514     379.821091      0.100133        10.423006      
105             436.518000      4002.587807     380.360596      0.100134        10.523140      
106             436.488000      4046.317357     380.889915      0.100185        10.623325      
107             436.670000      4090.042871     381.410781      0.100134        10.723459      
108             436.635000      4133.765317     381.921690      0.100135        10.823594      
109             436.707000      4177.494099     382.423883      0.100133        10.923727      
110             436.665000      4221.232649     382.916727      0.100165        11.023892      
111             436.724000      4264.960949     383.401050      0.100128        11.124020      
112             436.708000      4308.699876     383.876721      0.100156        11.224176      
113             436.676000      4352.422497     384.343556      0.100126        11.324302      
114             436.636000      4396.141113     384.801857      0.100126        11.424428      
115             436.573000      4439.853858     385.251652      0.100127        11.524555      
116             436.513000      4483.559285     385.693169      0.100124        11.624679      
117             436.173000      4527.231107     386.124246      0.100125        11.724804      
118             436.179000      4570.904402     386.548082      0.100127        11.824931      
119             436.149000      4614.573820     386.964541      0.100125        11.925056      
120             436.140000      4658.244519     387.374010      0.100130        12.025186      
121             436.244000      4701.927375     387.777591      0.100134        12.125320      
122             436.307000      4745.615668     388.175069      0.100132        12.225452      
123             436.370000      4789.311141     388.566608      0.100134        12.325586      
124             436.370000      4832.992215     388.951711      0.100101        12.425687      
125             436.416000      4876.691858     389.331146      0.100133        12.525820      
126             436.383000      4920.388633     389.704305      0.100134        12.625954      
127             436.340000      4964.066267     390.071130      0.100100        12.726054      
128             436.383000      5007.763043     390.432687      0.100134        12.826188      
129             436.248000      5051.464186     390.787740      0.100175        12.926363      
130             436.217000      5095.140413     391.136921      0.100125        13.026488      
131             436.064000      5138.805682     391.479643      0.100135        13.126623      
132             435.911000      5182.455630     391.816016      0.100135        13.226758      
133             435.818000      5226.094958     392.146627      0.100132        13.326890      
134             435.724000      5269.725745     392.471611      0.100134        13.427024      
135             435.673000      5313.352296     392.791413      0.100136        13.527160      
136             435.694000      5356.985743     393.106704      0.100147        13.627307      
137             435.846000      5400.629618     393.418470      0.100136        13.727443      
138             435.999000      5444.287942     393.726822      0.100134        13.827577      
139             408.015000      5485.143708     393.829546      0.100133        13.927710      
140             374.164000      5522.606505     393.689183      0.100124        14.027834      
141             343.052000      5556.957674     393.330285      0.100134        14.127968      
142             311.829000      5588.182359     392.756698      0.100134        14.228102      
143             280.554000      5616.275072     391.972568      0.100133        14.328235      
144             249.243000      5641.232771     390.982014      0.100134        14.428369      
145             237.741000      5665.038491     389.925850      0.100133        14.528502      
146             209.232000      5685.989728     388.688988      0.100134        14.628636      
147             155.086000      5701.518799     387.100863      0.100132        14.728768      
148             123.535000      5713.888853     385.321101      0.100134        14.828902      
149             122.965000      5726.201707     383.561409      0.100133        14.929035      
150             122.943000      5738.511867     381.825088      0.100129        15.029164      
