#timestep       power           acc-energy      avg-power       dt              acc-time       
1               130.025000      13.022394       130.025000      0.100153        0.100153       
2               130.025000      27.133357       130.025000      0.108525        0.208678       
3               129.920000      40.142376       129.990954      0.100131        0.308809       
4               129.950000      53.156219       129.980925      0.100145        0.408954       
5               129.814000      66.156572       129.948089      0.100146        0.509100       
6               129.908000      79.165040       129.941500      0.100136        0.609236       
7               129.784000      92.159792       129.919269      0.100126        0.709362       
8               130.800000      105.256404      130.028208      0.100127        0.809489       
9               129.700000      118.247286      129.992069      0.100161        0.909650       
10              129.682000      131.236883      129.961313      0.100165        1.009815       
11              118.925000      143.149006      128.965392      0.100165        1.109980       
12              118.957000      155.060646      128.137222      0.100134        1.210114       
13              119.008000      166.976679      127.439572      0.100128        1.310242       
14              133.917000      180.385520      127.899431      0.100128        1.410370       
15              148.939000      195.298187      129.294077      0.100126        1.510496       
16              163.707000      211.689514      131.433393      0.100126        1.610622       
17              178.495000      229.561861      134.187848      0.100128        1.710750       
18              193.431000      248.928753      137.463396      0.100123        1.810873       
19              208.128000      269.767569      141.165804      0.100125        1.910998       
20              223.061000      292.096421      145.242117      0.100102        2.011100       
21              237.806000      315.908887      149.632342      0.100134        2.111234       
22              252.643000      341.205020      154.296460      0.100126        2.211360       
23              267.340000      367.973240      159.193230      0.100128        2.311488       
24              267.340000      394.740390      163.683209      0.100124        2.411612       
25              267.066000      421.480640      167.804381      0.100126        2.511738       
26              267.123000      448.227132      171.611841      0.100128        2.611866       
27              267.034000      474.964713      175.134868      0.100128        2.711994       
28              267.217000      501.720616      178.413531      0.100128        2.812122       
29              266.968000      528.451588      181.458181      0.100128        2.912250       
30              267.217000      555.200812      184.308018      0.100103        3.012353       
31              266.968000      581.934453      186.967433      0.100138        3.112491       
32              267.157000      608.687555      189.466999      0.100140        3.212631       
33              267.038000      635.428740      191.811852      0.100140        3.312771       
34              267.226000      662.195166      194.025132      0.100164        3.412935       
35              267.008000      688.933080      196.105485      0.100139        3.513074       
36              267.257000      715.696730      198.077483      0.100142        3.613216       
37              267.213000      742.454906      199.941860      0.100138        3.713354       
38              267.213000      769.213615      201.708359      0.100140        3.813494       
39              267.284000      795.979970      203.386306      0.100142        3.913636       
40              267.416000      822.750718      204.983306      0.100109        4.013745       
41              267.421000      849.530792      206.503191      0.100142        4.113887       
42              267.454000      876.313635      207.951595      0.100140        4.214027       
43              267.386000      903.105445      209.331974      0.100199        4.314226       
44              267.553000      929.898203      210.652719      0.100140        4.414366       
45              267.446000      956.680780      211.912523      0.100142        4.514508       
46              267.557000      983.473938      213.120034      0.100140        4.614648       
47              267.557000      1010.272715     214.276488      0.100161        4.714809       
48              267.591000      1037.069545     215.385320      0.100141        4.814950       
49              267.540000      1063.861001     216.447919      0.100140        4.915090       
50              267.695000      1090.660215     217.470888      0.100111        5.015201       
51              267.557000      1117.453640     218.451404      0.100141        5.115342       
52              267.656000      1144.256980     219.396167      0.100141        5.215483       
53              267.656000      1171.060319     220.305334      0.100141        5.315624       
54              267.623000      1197.868918     221.180542      0.100173        5.415797       
55              267.540000      1224.660641     222.022191      0.100141        5.515938       
56              267.689000      1251.467553     222.836490      0.100142        5.616080       
57              267.600000      1278.265552     223.620698      0.100142        5.716222       
58              267.722000      1305.075501     224.379995      0.100141        5.816363       
59              267.630000      1331.876504     225.112039      0.100142        5.916505       
60              267.723000      1358.678522     225.821047      0.100111        6.016616       
61              267.631000      1385.479625     226.505548      0.100142        6.116758       
62              267.845000      1412.301624     227.171432      0.100140        6.216898       
63              267.571000      1439.096719     227.811874      0.100142        6.317040       
64              267.786000      1465.913076     228.435675      0.100141        6.417181       
65              267.691000      1492.720189     229.038854      0.100142        6.517323       
66              267.657000      1519.523628     229.623256      0.100141        6.617464       
67              267.571000      1546.320864     230.189002      0.100150        6.717614       
68              267.690000      1573.127608     230.739827      0.100141        6.817755       
69              267.536000      1599.918663     231.272470      0.100140        6.917895       
70              267.619000      1626.718833     231.791112      0.100143        7.018038       
71              267.536000      1653.509888     232.293979      0.100140        7.118178       
72              267.619000      1680.309254     232.784044      0.100140        7.218318       
73              267.566000      1707.103849     233.259982      0.100142        7.318460       
74              267.685000      1733.910360     233.724678      0.100142        7.418602       
75              267.596000      1760.707156     234.175796      0.100139        7.518741       
76              267.783000      1787.523213     234.617522      0.100141        7.618882       
77              267.783000      1814.339538     235.047791      0.100142        7.719024       
78              267.900000      1841.167044     235.468529      0.100140        7.819164       
79              267.854000      1867.990212     235.878049      0.100141        7.919305       
80              267.957000      1894.820746     236.278584      0.100130        8.019435       
81              267.990000      1921.657533     236.669690      0.100141        8.119576       
82              268.023000      1948.497892     237.051672      0.100142        8.219718       
83              268.118000      1975.347765     237.425602      0.100142        8.319860       
84              267.934000      2002.179212     237.788448      0.100142        8.420002       
85              268.148000      2029.032089     238.145281      0.100142        8.520144       
86              267.963000      2055.878766     238.491831      0.100188        8.620332       
87              268.121000      2082.728939     238.832079      0.100142        8.720474       
88              268.023000      2109.569030     239.163486      0.100141        8.820615       
89              268.237000      2136.431088     239.489860      0.100143        8.920758       
90              267.959000      2163.266110     239.805912      0.100146        9.020904       
91              268.237000      2190.127900     240.118063      0.100142        9.121046       
92              268.023000      2216.967991     240.421107      0.100141        9.221187       
93              268.088000      2243.814591     240.718339      0.100141        9.321328       
94              268.122000      2270.664328     241.009610      0.100140        9.421468       
95              267.717000      2297.473776     241.290498      0.100141        9.521609       
96              267.684000      2324.279920     241.565196      0.100141        9.621750       
97              267.809000      2351.099117     241.835527      0.100143        9.721893       
98              267.595000      2377.896615     242.098161      0.100142        9.822035       
99              267.651000      2404.699186     242.356055      0.100140        9.922175       
100             267.595000      2431.497487     242.608247      0.100145        10.022320      
101             267.809000      2458.316149     242.857557      0.100141        10.122461      
102             267.531000      2485.106703     243.099257      0.100140        10.222601      
103             267.809000      2511.925364     243.338966      0.100141        10.322742      
104             267.595000      2538.723130     243.572018      0.100143        10.422885      
105             267.720000      2565.533414     243.801823      0.100143        10.523028      
106             267.934000      2592.364593     244.029309      0.100141        10.623169      
107             268.148000      2619.217202     244.254545      0.100141        10.723310      
108             267.991000      2646.054088     244.474160      0.100141        10.823451      
109             268.118000      2672.903961     244.690915      0.100142        10.923593      
110             268.057000      2699.749065     244.903188      0.100147        11.023740      
111             267.685000      2726.555844     245.108281      0.100143        11.123883      
112             267.717000      2753.364757     245.309993      0.100139        11.224022      
113             267.679000      2780.170935     245.507809      0.100143        11.324165      
114             267.712000      2806.980150     245.702444      0.100142        11.424307      
115             267.865000      2833.804419     245.895024      0.100141        11.524448      
116             267.740000      2860.616438     246.083211      0.100142        11.624590      
117             267.777000      2887.432163     246.268500      0.100142        11.724732      
118             267.770000      2914.246115     246.450584      0.100138        11.824870      
119             267.536000      2941.038775     246.627659      0.100146        11.925016      
120             267.491000      2967.825324     246.801399      0.100140        12.025156      
121             267.709000      2994.632365     246.974061      0.100135        12.125291      
122             267.923000      3021.463781     247.145667      0.100146        12.225437      
123             268.172000      3048.316380     247.316483      0.100132        12.325569      
124             267.958000      3075.147550     247.482822      0.100132        12.425701      
125             268.088000      3101.991738     247.647541      0.100132        12.525833      
126             268.088000      3128.835658     247.809645      0.100131        12.625964      
127             268.159000      3155.686955     247.969759      0.100132        12.726096      
128             268.159000      3182.537983     248.127371      0.100131        12.826227      
129             268.532000      3209.438982     248.285504      0.100178        12.926405      
130             268.598000      3236.335043     248.441646      0.100135        13.026540      
131             268.272000      3263.197655     248.592915      0.100132        13.126672      
132             268.056000      3290.042391     248.740278      0.100146        13.226818      
133             268.018000      3316.879569     248.885121      0.100132        13.326950      
134             268.084000      3343.720676     249.028282      0.100122        13.427072      
135             268.203000      3370.576378     249.170219      0.100132        13.527204      
136             268.045000      3397.416528     249.308910      0.100133        13.627337      
137             267.602000      3424.213122     249.442350      0.100136        13.727473      
138             267.551000      3451.004074     249.573485      0.100134        13.827607      
139             267.705000      3477.811517     249.703848      0.100138        13.927745      
140             267.536000      3504.603643     249.831150      0.100144        14.027889      
141             267.974000      3531.438827     249.959749      0.100141        14.128030      
142             267.949000      3558.271776     250.086362      0.100142        14.228172      
143             268.040000      3585.114373     250.211844      0.100144        14.328316      
144             267.979000      3611.953006     250.335171      0.100152        14.428468      
145             268.104000      3638.801477     250.457647      0.100142        14.528610      
146             267.949000      3665.634694     250.577386      0.100143        14.628753      
147             268.168000      3692.489842     250.696987      0.100143        14.728896      
148             268.418000      3719.370025     250.816659      0.100143        14.829039      
149             268.489000      3746.257319     250.935203      0.100143        14.929182      
150             268.388000      3773.134767     251.051495      0.100144        15.029326      
151             268.542000      3800.027906     251.167269      0.100145        15.129471      
152             268.457000      3826.911458     251.280956      0.100141        15.229612      
153             268.495000      3853.806334     251.393437      0.100169        15.329781      
154             268.528000      3880.697265     251.504642      0.100142        15.429923      
155             268.155000      3907.550038     251.612005      0.100139        15.530062      
156             268.113000      3934.399142     251.717725      0.100141        15.630203      
157             268.117000      3961.250256     251.822131      0.100147        15.730350      
158             268.113000      3988.099628     251.925185      0.100142        15.830492      
159             268.221000      4014.959815     252.027623      0.100142        15.930634      
160             268.221000      4041.821344     252.128785      0.100147        16.030781      
161             268.259000      4068.696603     252.228965      0.100184        16.130965      
162             268.208000      4095.555221     252.327551      0.100141        16.231106      
163             268.362000      4122.429260     252.425872      0.100141        16.331247      
164             268.221000      4149.289179     252.522135      0.100141        16.431388      
165             268.392000      4176.166490     252.618269      0.100142        16.531530      
166             268.641000      4203.067931     252.714741      0.100139        16.631669      
167             268.735000      4229.977442     252.810617      0.100134        16.731803      
168             268.735000      4256.886415     252.905350      0.100132        16.831935      
169             268.697000      4283.791583     252.998738      0.100132        16.932067      
170             268.325000      4310.660307     253.088844      0.100135        17.032202      
171             268.456000      4337.550739     253.178690      0.100167        17.132369      
172             268.325000      4364.419195     253.266702      0.100134        17.232503      
173             268.456000      4391.301036     253.354454      0.100135        17.332638      
174             268.302000      4418.168262     253.440316      0.100138        17.432776      
175             268.302000      4445.036024     253.525199      0.100140        17.532916      
176             268.491000      4471.923787     253.610195      0.100144        17.633060      
177             268.291000      4498.790984     253.693100      0.100142        17.733202      
178             268.456000      4525.674436     253.775999      0.100141        17.833343      
179             268.337000      4552.545704     253.857307      0.100140        17.933483      
180             268.491000      4579.434003     253.938572      0.100146        18.033629      
181             268.705000      4606.342122     254.020117      0.100140        18.133769      
182             268.824000      4633.262964     254.101422      0.100143        18.233912      
183             268.636000      4660.164710     254.180811      0.100142        18.334054      
184             268.855000      4687.088656     254.260528      0.100143        18.434197      
185             268.763000      4714.003389     254.338886      0.100143        18.534340      
186             268.763000      4740.917585     254.416401      0.100141        18.634481      
187             268.666000      4767.822067     254.492568      0.100141        18.734622      
188             268.763000      4794.735994     254.568441      0.100140        18.834762      
189             268.725000      4821.650952     254.643323      0.100158        18.934920      
190             268.881000      4848.577771     254.718228      0.100144        19.035064      
191             268.900000      4875.505955     254.792447      0.100142        19.135206      
192             268.938000      4902.437675     254.866090      0.100141        19.235347      
193             268.860000      4929.361047     254.938565      0.100139        19.335486      
194             268.943000      4956.301605     255.010744      0.100172        19.435658      
195             268.943000      4983.237322     255.082170      0.100154        19.535812      
196             268.976000      5010.173117     255.153028      0.100142        19.635954      
197             269.014000      5037.112986     255.223360      0.100143        19.736097      
198             269.047000      5064.055891     255.293148      0.100142        19.836239      
199             269.047000      5090.998795     255.362234      0.100142        19.936381      
200             268.571000      5117.903969     255.428276      0.100179        20.036560      
201             268.491000      5144.790927     255.493237      0.100141        20.136701      
202             268.566000      5171.685663     255.557928      0.100142        20.236843      
203             268.566000      5198.580399     255.621981      0.100142        20.336985      
204             268.566000      5225.475136     255.685407      0.100142        20.437127      
205             268.605000      5252.373778     255.748404      0.100142        20.537269      
206             268.741000      5279.286308     255.811451      0.100143        20.637412      
207             268.522000      5306.176906     255.872831      0.100143        20.737555      
