#timestep       power           acc-energy      avg-power       dt              acc-time       
1               121.752000      12.187253       121.752000      0.100099        0.100099       
2               121.752000      26.234147       121.752000      0.115373        0.215472       
3               121.669000      38.413457       121.725672      0.100102        0.315574       
4               121.610000      50.586010       121.697818      0.100095        0.415669       
5               121.470000      62.747465       121.653596      0.100119        0.515788       
6               121.584000      74.923252       121.642281      0.100143        0.615931       
7               121.416000      87.081000       121.610638      0.100133        0.716064       
8               121.492000      99.246480       121.596083      0.100134        0.816198       
9               121.363000      111.398921      121.570613      0.100133        0.916331       
10              121.264000      123.541328      121.540408      0.100132        1.016463       
11              121.155000      135.672942      121.505846      0.100133        1.116596       
12              120.073000      147.697172      121.387919      0.100141        1.216737       
13              120.055000      159.718879      121.286563      0.100135        1.316872       
14              120.020000      171.737082      121.197060      0.100135        1.417007       
15              120.024000      183.755565      121.119636      0.100134        1.517141       
16              120.043000      195.776071      121.052975      0.100135        1.617276       
17              120.029000      207.796255      120.993266      0.100144        1.717420       
18              120.051000      219.818763      120.941349      0.100145        1.817565       
19              119.991000      231.835141      120.891721      0.100144        1.917709       
20              119.991000      243.850200      120.847024      0.100133        2.017842       
21              119.979000      255.860818      120.805996      0.100106        2.117948       
22              135.043000      269.377137      121.448441      0.100089        2.218037       
23              147.408000      284.131351      122.569311      0.100091        2.318128       
24              160.892000      300.235031      124.155486      0.100090        2.418218       
25              179.922000      318.243604      126.371944      0.100091        2.518309       
26              194.770000      337.739691      128.986705      0.100098        2.618407       
27              201.462000      357.907649      131.655573      0.100108        2.718515       
28              214.988000      379.426873      134.614889      0.100095        2.818610       
29              239.359000      403.384316      138.206844      0.100090        2.918700       
30              254.228000      428.829996      142.053603      0.100090        3.018790       
31              255.516000      454.404848      145.694834      0.100091        3.118881       
32              269.074000      481.336196      149.531122      0.100089        3.218970       
33              268.703000      508.230948      153.124919      0.100091        3.319061       
34              268.703000      535.132417      156.509130      0.100116        3.419177       
35              268.706000      562.031500      159.700570      0.100106        3.519283       
36              268.677000      588.927680      162.714668      0.100106        3.619389       
37              268.737000      615.825566      165.567695      0.100090        3.719479       
38              268.737000      642.725334      168.271382      0.100097        3.819576       
39              268.703000      669.621160      170.836063      0.100095        3.919671       
40              268.703000      696.515912      173.272923      0.100091        4.019762       
41              268.802000      723.420304      175.593760      0.100090        4.119852       
42              268.769000      750.327038      177.804175      0.100111        4.219963       
43              268.767000      777.234377      179.912158      0.100114        4.320077       
44              268.868000      804.145375      181.926469      0.100090        4.420167       
45              268.868000      831.056911      183.851614      0.100092        4.520259       
46              268.856000      857.969397      185.693232      0.100100        4.620359       
47              268.856000      884.879194      187.456573      0.100090        4.720449       
48              268.856000      911.788991      189.146689      0.100090        4.820539       
49              268.916000      938.704793      190.769268      0.100090        4.920629       
50              268.946000      965.623598      192.327752      0.100090        5.020719       
51              268.934000      992.541203      193.825078      0.100090        5.120809       
52              268.967000      1019.461841     195.265612      0.100089        5.220898       
53              268.976000      1046.383917     196.652148      0.100091        5.320989       
54              269.005000      1073.308897     197.988020      0.100091        5.421080       
55              268.946000      1100.227971     199.274388      0.100091        5.521171       
56              268.999000      1127.152350     200.515889      0.100091        5.621262       
57              268.895000      1154.066050     201.712122      0.100090        5.721352       
58              268.911000      1180.981890     202.867517      0.100092        5.821444       
59              268.863000      1207.892388     203.983020      0.100090        5.921534       
60              268.863000      1234.804499     205.061503      0.100096        6.021630       
61              268.911000      1261.719801     206.105441      0.100090        6.121720       
62              268.911000      1288.635103     207.115792      0.100090        6.221810       
63              268.928000      1315.552375     208.094428      0.100091        6.321901       
64              268.961000      1342.472682     209.043065      0.100090        6.421991       
65              269.026000      1369.399494     209.963583      0.100090        6.522081       
66              269.059000      1396.329878     210.856782      0.100091        6.622172       
67              269.059000      1423.259725     211.723366      0.100089        6.722261       
68              269.266000      1450.210559     212.567568      0.100090        6.822351       
69              269.299000      1477.164965     213.387843      0.100091        6.922442       
70              269.278000      1504.117000     214.184428      0.100090        7.022532       
71              269.337000      1531.075479     214.959470      0.100092        7.122624       
72              269.402000      1558.039925     215.713917      0.100090        7.222714       
73              269.436000      1585.008044     216.448211      0.100091        7.322805       
74              269.440000      1611.976563     217.162757      0.100091        7.422896       
75              269.408000      1638.941609     217.857857      0.100090        7.522986       
76              269.406000      1665.906725     218.534684      0.100091        7.623077       
77              269.377000      1692.876751     219.193781      0.100120        7.723197       
78              269.406000      1719.841058     219.836176      0.100088        7.823285       
79              269.342000      1746.803809     220.461644      0.100106        7.923391       
80              269.441000      1773.776469     221.072740      0.100106        8.023497       
81              269.441000      1800.756674     221.668940      0.100134        8.123631       
82              269.403000      1827.732805     222.250153      0.100133        8.223764       
83              269.332000      1854.699402     222.816477      0.100124        8.323888       
84              269.404000      1881.675633     223.370245      0.100133        8.424021       
85              269.508000      1908.662008     223.912218      0.100132        8.524153       
86              269.508000      1935.661319     224.441858      0.100180        8.624333       
87              269.579000      1962.655073     224.959909      0.100133        8.724466       
88              269.546000      1989.646332     225.465843      0.100136        8.824602       
89              269.532000      2016.635379     225.960253      0.100133        8.924735       
90              269.562000      2043.627431     226.444025      0.100133        9.024868       
91              269.531000      2070.616379     226.916839      0.100133        9.125001       
92              269.617000      2097.613668     227.380317      0.100132        9.225133       
93              269.567000      2124.606221     227.833310      0.100133        9.325266       
94              269.545000      2151.596570     228.276444      0.100133        9.425399       
95              269.566000      2178.589022     228.710483      0.100133        9.525532       
96              269.535000      2205.578371     229.135168      0.100133        9.625665       
97              269.550000      2232.569221     229.551264      0.100133        9.725798       
98              269.583000      2259.563914     229.959223      0.100135        9.825933       
99              269.621000      2286.561604     230.359322      0.100132        9.926065       
100             269.634000      2313.560866     230.751564      0.100133        10.026198      
101             269.621000      2340.558825     231.135919      0.100133        10.126331      
102             269.634000      2367.558356     231.512879      0.100134        10.226465      
103             269.658000      2394.560021     231.882758      0.100133        10.326598      
104             269.730000      2421.569165     232.246227      0.100134        10.426732      
105             269.730000      2448.578308     232.602781      0.100134        10.526866      
106             269.699000      2475.584888     232.952331      0.100136        10.627002      
107             269.699000      2502.590657     233.295345      0.100133        10.727135      
108             269.729000      2529.597543     233.632268      0.100126        10.827261      
109             269.764000      2556.611171     233.963377      0.100138        10.927399      
110             269.763000      2583.623619     234.288450      0.100134        11.027533      
111             269.794000      2610.639441     234.607956      0.100135        11.127668      
112             269.835000      2637.659909     234.922134      0.100137        11.227805      
113             269.829000      2664.678966     235.230695      0.100134        11.327939      
114             269.829000      2691.697753     235.533846      0.100133        11.428072      
115             269.834000      2718.717311     235.831777      0.100134        11.528206      
116             269.889000      2745.742646     236.125054      0.100135        11.628341      
117             269.889000      2772.767981     236.413323      0.100135        11.728476      
118             269.919000      2799.795780     236.696959      0.100133        11.828609      
119             269.901000      2826.822047     236.975685      0.100134        11.928743      
120             269.919000      2853.849846     237.249918      0.100133        12.028876      
121             269.934000      2880.879687     237.519752      0.100135        12.129011      
122             269.950000      2907.910590     237.785293      0.100133        12.229144      
123             270.001000      2934.946870     238.046938      0.100134        12.329278      
124             269.915000      2961.974539     238.303674      0.100134        12.429412      
125             269.930000      2989.017476     238.556553      0.100185        12.529597      
126             269.969000      3016.050822     238.805607      0.100135        12.629732      
127             270.001000      3043.086832     239.050990      0.100133        12.729865      
128             269.946000      3070.117875     239.292118      0.100135        12.830000      
129             269.963000      3097.163578     239.529756      0.100183        12.930183      
130             269.963000      3124.196053     239.763626      0.100134        13.030317      
131             269.946000      3151.226556     239.993797      0.100133        13.130450      
132             269.930000      3178.255727     240.220366      0.100134        13.230584      
133             269.946000      3205.287309     240.443657      0.100137        13.330721      
134             270.071000      3232.330599     240.664544      0.100134        13.430855      
135             270.071000      3259.374158     240.882164      0.100135        13.530990      
136             270.067000      3286.417047     241.096556      0.100134        13.631124      
137             270.071000      3313.460067     241.307847      0.100133        13.731257      
138             270.139000      3340.511246     241.516582      0.100138        13.831395      
139             270.171000      3367.564549     241.722538      0.100134        13.931529      
140             270.135000      3394.614247     241.925298      0.100134        14.031663      
141             270.171000      3421.667280     242.125437      0.100133        14.131796      
142             270.165000      3448.720252     242.322721      0.100135        14.231931      
143             270.171000      3475.773555     242.517289      0.100134        14.332065      
144             270.139000      3502.823653     242.708935      0.100134        14.432199      
145             270.139000      3529.873482     242.897938      0.100133        14.532332      
146             270.136000      3556.923280     243.084336      0.100134        14.632466      
147             270.136000      3583.983073     243.268267      0.100171        14.732637      
148             270.136000      3611.032601     243.449646      0.100133        14.832770      
149             270.106000      3638.079396     243.628392      0.100134        14.932904      
150             270.136000      3665.129194     243.804958      0.100134        15.033038      
151             270.196000      3692.184730     243.979582      0.100133        15.133171      
152             270.204000      3719.234582     244.151921      0.100109        15.233280      
153             270.225000      3746.282213     244.322121      0.100093        15.333373      
154             270.034000      3773.325848     244.488967      0.100149        15.433522      
155             270.067000      3800.371438     244.653866      0.100144        15.533666      
156             270.100000      3827.418171     244.816851      0.100136        15.633802      
157             270.132000      3854.467569     244.977962      0.100134        15.733936      
158             270.165000      3881.520001     245.137242      0.100133        15.834069      
159             270.129000      3908.569098     245.294295      0.100134        15.934203      
160             270.099000      3935.615192     245.449200      0.100134        16.034337      
161             270.099000      3962.661015     245.602181      0.100133        16.134470      
162             270.132000      3989.710412     245.753479      0.100134        16.234604      
163             270.159000      4016.762514     245.903088      0.100134        16.334738      
164             270.129000      4043.811881     246.050692      0.100135        16.434873      
165             270.344000      4070.882507     246.197810      0.100134        16.535007      
166             270.344000      4097.953133     246.343156      0.100134        16.635141      
167             270.314000      4125.020755     246.486583      0.100134        16.735275      
168             270.314000      4152.097298     246.628351      0.100167        16.835442      
169             270.314000      4179.165190     246.768397      0.100135        16.935577      
170             270.401000      4206.241254     246.907306      0.100133        17.035710      
171             270.374000      4233.327591     247.044498      0.100181        17.135891      
172             270.368000      4260.400621     247.179998      0.100134        17.236025      
173             270.374000      4287.474521     247.313968      0.100135        17.336160      
174             270.433000      4314.554870     247.446741      0.100137        17.436297      
175             270.463000      4341.637412     247.578165      0.100134        17.536431      
176             270.463000      4368.719954     247.708097      0.100134        17.636565      
177             270.466000      4395.802526     247.836577      0.100133        17.736698      
178             270.463000      4422.885339     247.963601      0.100135        17.836833      
179             270.522000      4449.965403     248.089495      0.100103        17.936936      
180             270.499000      4477.051550     248.213903      0.100134        18.037070      
181             270.463000      4504.134092     248.336739      0.100134        18.137204      
182             270.499000      4531.222403     248.458433      0.100142        18.237346      
183             270.463000      4558.307379     248.578602      0.100143        18.337489      
184             270.466000      4585.385623     248.697451      0.100117        18.437606      
185             270.401000      4612.454656     248.814655      0.100107        18.537713      
186             270.368000      4639.520386     248.930421      0.100107        18.637820      
187             270.433000      4666.592081     249.045296      0.100105        18.737925      
188             270.433000      4693.664588     249.158953      0.100108        18.838033      
189             270.401000      4720.733350     249.271238      0.100106        18.938139      
190             270.466000      4747.808890     249.382684      0.100107        19.038246      
191             270.531000      4774.890666     249.493304      0.100106        19.138352      
192             270.552000      4801.974815     249.602882      0.100107        19.238459      
193             270.552000      4829.063564     249.711345      0.100124        19.338583      
194             270.611000      4856.156055     249.818985      0.100116        19.438699      
195             270.641000      4883.249113     249.925667      0.100107        19.538806      
196             270.641000      4910.342172     250.031260      0.100107        19.638913      
197             270.700000      4937.441137     250.136083      0.100107        19.739020      
198             270.641000      4964.534737     250.239551      0.100109        19.839129      
199             270.727000      4991.636134     250.342410      0.100106        19.939235      
200             270.730000      5018.747577     250.444292      0.100142        20.039377      
201             270.700000      5045.847625     250.544980      0.100111        20.139488      
202             270.694000      5072.945719     250.644638      0.100106        20.239594      
203             270.662000      5100.040880     250.743159      0.100107        20.339701      
204             270.629000      5127.132466     250.840552      0.100106        20.439807      
205             270.629000      5154.224324     250.936996      0.100107        20.539914      
206             270.695000      5181.323059     251.032826      0.100108        20.640022      
207             270.695000      5208.421523     251.127730      0.100107        20.740129      
