#timestep       power           acc-energy      avg-power       dt              acc-time       
1               123.838000      12.400147       123.838000      0.100132        0.100132       
2               123.838000      25.979107       123.838000      0.109651        0.209783       
3               123.771000      38.374030       123.816351      0.100144        0.309927       
4               123.577000      50.759164       123.757864      0.100222        0.410149       
5               123.488000      63.124882       123.704907      0.100137        0.510286       
6               123.375000      75.477064       123.650795      0.100119        0.610405       
7               123.262000      87.824588       123.595985      0.100173        0.710578       
8               123.114000      100.152855      123.536452      0.100137        0.810715       
9               123.008000      112.473213      123.478344      0.100159        0.910874       
10              122.865000      124.780231      123.417578      0.100167        1.011041       
11              121.584000      136.970000      123.252158      0.100258        1.111299       
12              121.600000      149.152618      123.115530      0.100186        1.211485       
13              121.612000      161.336316      123.000691      0.100185        1.311670       
14              121.612000      173.521352      122.902139      0.100196        1.411866       
15              121.593000      185.697675      122.815435      0.100140        1.512006       
16              121.609000      197.880586      122.740468      0.100181        1.612187       
17              121.623000      210.060157      122.675115      0.100142        1.712329       
18              121.589000      222.240943      122.615084      0.100180        1.812509       
19              121.575000      234.421299      122.560604      0.100188        1.912697       
20              121.588000      246.597851      122.512213      0.100146        2.012843       
21              121.601000      258.772907      122.469035      0.100123        2.112966       
22              138.168000      272.602972      123.179094      0.100096        2.213062       
23              158.170000      288.434681      124.693192      0.100093        2.313155       
24              176.660000      306.116934      126.848571      0.100092        2.413247       
25              195.182000      325.652505      129.569825      0.100089        2.513336       
26              204.889000      346.159231      132.454345      0.100087        2.613423       
27              221.330000      368.311708      135.732528      0.100088        2.713511       
28              237.829000      392.115774      139.364435      0.100089        2.813600       
29              254.335000      417.580812      143.315157      0.100124        2.913724       
30              270.562000      444.661092      147.541036      0.100089        3.013813       
31              286.836000      473.374236      152.018949      0.100103        3.113916       
32              303.031000      503.709154      156.722422      0.100105        3.214021       
33              302.620000      533.998088      161.128655      0.100089        3.314110       
34              302.312000      564.255589      165.267437      0.100087        3.414197       
35              301.790000      594.461146      169.155645      0.100088        3.514285       
36              301.165000      624.604450      172.811239      0.100089        3.614374       
37              301.028000      654.733740      176.266103      0.100088        3.714462       
38              300.656000      684.825798      179.529905      0.100088        3.814550       
39              300.420000      714.894235      182.620777      0.100088        3.914638       
40              300.519000      744.972280      185.559977      0.100087        4.014725       
41              300.526000      775.051627      188.356418      0.100089        4.114814       
42              300.283000      805.106352      191.014252      0.100088        4.214902       
43              300.282000      835.176591      193.550049      0.100140        4.315042       
44              300.354000      865.251338      195.972239      0.100131        4.415173       
45              300.354000      895.326385      198.287023      0.100132        4.515305       
46              300.288000      925.394522      200.499914      0.100131        4.615436       
47              300.316000      955.466064      202.619464      0.100133        4.715569       
48              300.392000      985.545216      204.652451      0.100133        4.815702       
49              300.441000      1015.633782     206.603900      0.100148        4.915850       
50              300.441000      1045.717540     208.477132      0.100132        5.015982       
51              300.392000      1075.796992     210.276114      0.100134        5.116116       
52              300.441000      1105.880751     212.006935      0.100132        5.216248       
53              300.685000      1135.989242     213.677169      0.100133        5.316381       
54              300.744000      1166.103340     215.286724      0.100132        5.416513       
55              300.685000      1196.211831     216.836794      0.100133        5.516646       
56              300.685000      1226.320021     218.331581      0.100132        5.616778       
57              300.774000      1256.438026     219.775607      0.100135        5.716913       
58              300.825000      1286.559934     221.170741      0.100131        5.817044       
59              300.760000      1316.677439     222.517651      0.100138        5.917182       
60              300.825000      1346.799347     223.820723      0.100131        6.017313       
61              300.857000      1376.925061     225.081686      0.100133        6.117446       
62              300.857000      1407.050173     226.302010      0.100131        6.217577       
63              300.726000      1437.162469     227.481587      0.100132        6.317709       
64              300.726000      1467.274765     228.624356      0.100132        6.417841       
65              300.791000      1497.392968     229.732990      0.100130        6.517971       
66              300.833000      1527.515978     230.808734      0.100132        6.618103       
67              300.687000      1557.624068     231.850225      0.100131        6.718234       
68              300.708000      1587.734561     232.861445      0.100132        6.818366       
69              300.649000      1617.838546     233.842521      0.100130        6.918496       
70              300.709000      1647.949139     234.796479      0.100132        7.018628       
71              300.465000      1678.035901     235.720186      0.100134        7.118762       
72              300.465000      1708.122063     236.618250      0.100132        7.218894       
73              300.465000      1738.210628     237.491809      0.100140        7.319034       
74              300.554000      1768.305701     238.342922      0.100132        7.419166       
75              300.495000      1798.395167     239.170588      0.100133        7.519299       
76              300.387000      1828.473818     239.975082      0.100133        7.619432       
77              300.556000      1858.569092     240.760889      0.100132        7.719564       
78              300.619000      1888.670673     241.527378      0.100132        7.819696       
79              300.654000      1918.779668     242.275024      0.100145        7.919841       
80              300.687000      1948.887758     243.004310      0.100131        8.019972       
81              300.923000      1979.010752     243.718315      0.100102        8.120074       
82              300.955000      2009.136649     244.415313      0.100101        8.220175       
83              300.982000      2039.265549     245.095872      0.100102        8.320277       
84              300.953000      2069.391245     245.759899      0.100101        8.420378       
85              301.053000      2099.527253     246.409504      0.100102        8.520480       
86              301.107000      2129.690948     247.045114      0.100176        8.620656       
87              301.201000      2159.851408     247.666944      0.100134        8.720790       
88              301.131000      2190.006366     248.273891      0.100139        8.820929       
89              301.131000      2220.149880     248.866990      0.100101        8.921030       
90              301.142000      2250.295098     249.447059      0.100103        9.021133       
91              301.236000      2280.449424     250.015423      0.100102        9.121235       
92              301.083000      2310.598069     250.569961      0.100134        9.221369       
93              301.066000      2340.744711     251.112397      0.100133        9.321502       
94              301.131000      2370.897560     251.643989      0.100132        9.421634       
95              301.170000      2401.054917     252.164820      0.100134        9.521768       
96              301.024000      2431.197052     252.673282      0.100132        9.621900       
97              300.890000      2461.325468     253.169885      0.100131        9.722031       
98              300.958000      2491.460995     253.657061      0.100132        9.822163       
99              301.066000      2521.607336     254.135493      0.100132        9.922295       
100             301.001000      2551.746867     254.603712      0.100131        10.022426      
101             300.994000      2581.886299     255.062608      0.100133        10.122559      
102             301.066000      2612.032941     255.513219      0.100133        10.222692      
103             301.066000      2642.190421     255.955245      0.100169        10.322861      
104             301.023000      2672.332757     256.388208      0.100133        10.422994      
105             300.962000      2702.468684     256.812347      0.100132        10.523126      
106             301.170000      2732.637485     257.230616      0.100172        10.623298      
107             301.274000      2762.804653     257.641879      0.100132        10.723430      
108             301.236000      2792.968318     258.045185      0.100133        10.823563      
109             301.164000      2823.124772     258.440437      0.100133        10.923696      
110             301.172000      2853.286245     258.828636      0.100147        11.023843      
111             301.334000      2883.460626     259.211261      0.100136        11.123979      
112             301.372000      2913.637909     259.587387      0.100133        11.224112      
113             301.331000      2943.811086     259.956499      0.100133        11.324245      
114             301.444000      2973.995578     260.320131      0.100133        11.424378      
115             301.491000      3004.184776     260.677852      0.100133        11.524511      
116             301.527000      3034.378182     261.029728      0.100135        11.624646      
117             301.432000      3064.561473     261.374775      0.100133        11.724779      
118             301.402000      3094.741759     261.713724      0.100133        11.824912      
119             301.467000      3124.928554     262.047527      0.100133        11.925045      
120             301.593000      3155.127966     262.376820      0.100133        12.025178      
121             301.473000      3185.315663     262.699687      0.100134        12.125312      
122             301.443000      3215.500055     263.017015      0.100133        12.225445      
123             301.443000      3245.684447     263.329188      0.100133        12.325578      
124             301.508000      3275.875348     263.636853      0.100133        12.425711      
125             301.358000      3306.051530     263.938403      0.100134        12.525845      
126             301.391000      3336.230715     264.235429      0.100133        12.625978      
127             301.560000      3366.426521     264.529108      0.100132        12.726110      
128             301.560000      3396.623231     264.818209      0.100135        12.826245      
129             301.378000      3426.803827     265.101441      0.100142        12.926387      
130             301.248000      3456.968994     265.379298      0.100134        13.026521      
131             301.343000      3487.143976     265.653642      0.100135        13.126656      
132             301.483000      3517.332976     265.924893      0.100135        13.226791      
133             301.548000      3547.528485     266.192555      0.100135        13.326926      
134             301.551000      3577.723993     266.456245      0.100134        13.427060      
135             301.646000      3607.941381     266.716841      0.100175        13.527235      
136             301.613000      3638.141287     266.973243      0.100128        13.627363      
137             301.616000      3668.335160     267.225873      0.100107        13.727470      
138             301.675000      3698.533732     267.475264      0.100103        13.827573      
139             301.924000      3728.766590     267.722935      0.100134        13.927707      
140             302.019000      3759.009263     267.967750      0.100135        14.027842      
141             301.924000      3789.242725     268.208425      0.100136        14.127978      
142             301.924000      3819.475884     268.445709      0.100135        14.228113      
143             301.864000      3849.693678     268.679186      0.100104        14.328217      
144             301.959000      3879.930343     268.910153      0.100135        14.428352      
145             301.930000      3910.163801     269.137734      0.100134        14.528486      
146             301.959000      3940.402277     269.362414      0.100141        14.628627      
147             301.959000      3970.638942     269.584025      0.100135        14.728762      
148             301.991000      4000.868543     269.802785      0.100101        14.828863      
149             301.822000      4031.091187     270.017550      0.100134        14.928997      
150             301.865000      4061.318137     270.229738      0.100134        15.029131      
151             301.894000      4091.548293     270.439312      0.100135        15.129266      
152             301.926000      4121.795843     270.646437      0.100182        15.229448      
153             301.822000      4152.028146     270.850143      0.100166        15.329614      
154             301.757000      4182.244281     271.050718      0.100134        15.429748      
155             301.822000      4212.466925     271.249126      0.100134        15.529882      
156             301.789000      4242.686265     271.444781      0.100134        15.630016      
157             301.740000      4272.900698     271.637632      0.100134        15.730150      
158             301.770000      4303.117834     271.828232      0.100133        15.830283      
159             301.822000      4333.340478     272.016764      0.100134        15.930417      
160             301.822000      4363.563122     272.202941      0.100134        16.030551      
161             301.887000      4393.791973     272.387208      0.100133        16.130684      
162             301.894000      4424.021525     272.569244      0.100133        16.230817      
163             301.991000      4454.261394     272.749647      0.100135        16.330952      
164             302.057000      4484.506965     272.928248      0.100132        16.431084      
165             302.057000      4514.752839     273.104687      0.100133        16.531217      
166             302.048000      4544.998113     273.278948      0.100134        16.631351      
167             302.095000      4575.247792     273.451404      0.100133        16.731484      
168             302.113000      4605.499273     273.621915      0.100133        16.831617      
169             302.143000      4635.754060     273.790588      0.100134        16.931751      
170             302.095000      4666.003739     273.956994      0.100133        17.031884      
171             302.113000      4696.268210     274.121630      0.100176        17.132060      
172             302.084000      4726.516788     274.284114      0.100133        17.232193      
173             302.143000      4756.772481     274.445068      0.100137        17.332330      
174             302.048000      4787.017454     274.603620      0.100133        17.432463      
175             302.019000      4817.259824     274.760198      0.100134        17.532597      
176             301.991000      4847.499391     274.914838      0.100134        17.632731      
177             302.019000      4877.741761     275.067890      0.100134        17.732865      
178             301.920000      4907.973615     275.218664      0.100132        17.832997      
179             301.920000      4938.205468     275.367755      0.100132        17.933129      
180             301.983000      4968.443328     275.515538      0.100131        18.033260      
181             302.084000      4998.691603     275.662248      0.100132        18.133392      
182             301.949000      5028.926662     275.806607      0.100133        18.233525      
183             301.882000      5059.154711     275.949022      0.100132        18.333657      
184             301.979000      5089.392774     276.090417      0.100133        18.433790      
185             302.133000      5119.649581     276.231133      0.100144        18.533934      
186             301.979000      5149.887946     276.369494      0.100134        18.634068      
187             301.948000      5180.122905     276.506209      0.100133        18.734201      
188             301.979000      5210.360969     276.641636      0.100133        18.834334      
189             302.104000      5240.611246     276.776290      0.100132        18.934466      
190             302.133000      5270.864730     276.909681      0.100133        19.034599      
191             302.019000      5301.107101     277.041080      0.100134        19.134733      
192             302.221000      5331.369698     277.172163      0.100134        19.234867      
193             302.221000      5361.631994     277.301887      0.100133        19.335000      
194             302.254000      5391.910893     277.430501      0.100177        19.435177      
195             302.187000      5422.169783     277.557397      0.100133        19.535310      
196             302.122000      5452.432438     277.682709      0.100167        19.635477      
197             302.292000      5482.701843     277.807569      0.100133        19.735610      
198             302.352000      5512.977256     277.931472      0.100133        19.835743      
199             302.411000      5543.258879     278.054428      0.100134        19.935877      
200             302.390000      5573.538096     278.176049      0.100133        20.036010      
201             302.390000      5603.817617     278.296461      0.100134        20.136144      
202             302.423000      5634.100441     278.415845      0.100134        20.236278      
203             302.411000      5664.382064     278.533994      0.100134        20.336412      
204             302.322000      5694.654473     278.650548      0.100133        20.436545      
205             302.292000      5724.923878     278.765820      0.100133        20.536678      
206             302.358000      5755.199892     278.880293      0.100133        20.636811      
207             302.381000      5785.490606     278.993817      0.100174        20.736985      
