#timestep       power           acc-energy      avg-power       dt              acc-time       
1               119.839000      11.998640       119.839000      0.100123        0.100123       
2               119.898000      25.089224       119.869777      0.109181        0.209304       
3               119.927000      37.095356       119.888291      0.100112        0.309416       
4               119.893000      49.100961       119.889443      0.100136        0.409552       
5               120.011000      61.117902       119.913324      0.100132        0.509684       
6               119.893000      73.123028       119.909987      0.100132        0.609816       
7               119.954000      85.134382       119.916194      0.100133        0.709949       
8               119.818000      97.131998       119.904057      0.100132        0.810081       
9               119.721000      109.119901      119.883919      0.100132        0.910213       
10              119.618000      121.097491      119.857564      0.100132        1.010345       
11              119.204000      133.033626      119.798632      0.100132        1.110477       
12              119.003000      144.949753      119.732823      0.100133        1.210610       
13              135.003000      158.469899      120.899525      0.100147        1.310757       
14              161.427000      174.633907      123.775795      0.100132        1.410889       
15              181.958000      192.853907      127.631436      0.100133        1.511022       
16              214.880000      214.370272      133.053868      0.100132        1.611154       
17              242.512000      238.653483      139.458561      0.100132        1.711286       
18              269.984000      265.687521      146.673778      0.100132        1.811418       
19              297.274000      295.453864      154.562538      0.100131        1.911549       
20              324.626000      327.958990      163.027415      0.100131        2.011680       
21              352.395000      363.245006      172.006318      0.100132        2.111812       
22              379.525000      401.247603      181.400435      0.100132        2.211944       
23              380.659000      439.363750      190.029978      0.100132        2.312076       
24              391.226000      478.537992      198.381728      0.100132        2.412208       
25              392.857000      517.874764      206.132600      0.100130        2.512338       
26              393.631000      557.289823      213.319128      0.100132        2.612470       
27              393.426000      596.684355      219.967528      0.100132        2.712602       
28              393.215000      636.054221      226.134521      0.100123        2.812725       
29              393.180000      675.424514      231.876910      0.100133        2.912858       
30              393.637000      714.839780      237.252702      0.100131        3.012989       
31              394.002000      754.287654      242.293929      0.100121        3.113110       
32              393.726000      793.711045      247.012763      0.100129        3.213239       
33              394.600000      833.223132      251.472936      0.100132        3.313371       
34              394.703000      872.745138      255.674418      0.100131        3.413502       
35              394.671000      912.264335      259.635561      0.100132        3.513634       
36              394.307000      951.751421      263.367502      0.100143        3.613777       
37              394.735000      991.276236      266.909278      0.100130        3.713907       
38              394.518000      1030.780113     270.259458      0.100132        3.814039       
39              394.852000      1070.318223     273.446836      0.100134        3.914173       
40              395.191000      1109.889488     276.483598      0.100132        4.014305       
41              394.704000      1149.412384     279.360725      0.100133        4.114438       
42              394.586000      1188.923069     282.098309      0.100132        4.214570       
43              394.739000      1228.467627     284.713578      0.100179        4.314749       
44              394.557000      1267.975409     287.204889      0.100132        4.414881       
45              394.106000      1307.438031     289.575696      0.100132        4.515013       
46              394.281000      1346.927244     291.847934      0.100155        4.615168       
47              394.463000      1386.427980     294.027149      0.100138        4.715306       
48              395.075000      1425.984470     296.128169      0.100124        4.815430       
49              395.108000      1465.552560     298.144685      0.100145        4.915575       
50              394.734000      1505.078065     300.072964      0.100132        5.015707       
51              394.996000      1544.630200     301.930905      0.100133        5.115840       
52              395.029000      1584.185243     303.718126      0.100132        5.215972       
53              395.164000      1623.753805     305.440564      0.100132        5.316104       
54              394.925000      1663.298830     307.094913      0.100133        5.416237       
55              395.164000      1702.867392     308.693525      0.100132        5.516369       
56              395.001000      1742.419632     310.232230      0.100132        5.616501       
57              395.169000      1781.988694     311.719975      0.100132        5.716633       
58              395.188000      1821.559659     313.156825      0.100132        5.816765       
59              394.465000      1861.058623     314.532822      0.100133        5.916898       
60              394.547000      1900.574872     315.864686      0.100156        6.017054       
61              394.823000      1940.109684     317.157164      0.100133        6.117187       
62              395.377000      1979.699573     318.416921      0.100132        6.217319       
63              395.042000      2019.255919     319.631433      0.100132        6.317451       
64              395.014000      2058.809856     320.807621      0.100133        6.417584       
65              395.345000      2098.396937     321.952754      0.100133        6.517717       
66              395.463000      2137.995438     323.065008      0.100132        6.617849       
67              395.615000      2177.609555     324.146381      0.100133        6.717982       
68              395.399000      2217.198484     325.192727      0.100124        6.818106       
69              395.369000      2256.787573     326.208432      0.100132        6.918238       
70              395.551000      2296.394885     327.197752      0.100132        7.018370       
71              395.872000      2336.034341     328.163754      0.100132        7.118502       
72              395.674000      2375.667422     329.100524      0.100166        7.218668       
73              395.035000      2415.236103     330.002898      0.100165        7.318833       
74              395.306000      2454.818884     330.884279      0.100132        7.418965       
75              395.517000      2494.423187     331.745003      0.100133        7.519098       
76              395.584000      2534.034200     332.583984      0.100133        7.619231       
77              395.573000      2573.643716     333.401048      0.100132        7.719363       
78              395.741000      2613.270054     334.199338      0.100132        7.819495       
79              395.773000      2652.895242     334.977762      0.100121        7.919616       
80              396.244000      2692.574324     335.742758      0.100138        8.019754       
81              396.347000      2732.258567     336.490059      0.100125        8.119879       
82              396.141000      2771.926146     337.216718      0.100135        8.220014       
83              396.194000      2811.598240     337.926510      0.100133        8.320147       
84              396.673000      2851.317901     338.625110      0.100132        8.420279       
85              396.505000      2891.021136     339.305322      0.100133        8.520412       
86              396.099000      2930.705503     339.965374      0.100188        8.620600       
87              396.066000      2970.364779     340.609531      0.100133        8.720733       
88              395.888000      3010.005837     341.237037      0.100132        8.820865       
89              396.163000      3049.674826     341.853549      0.100133        8.920998       
90              396.402000      3089.355063     342.458836      0.100101        9.021099       
91              395.666000      3128.975869     343.042968      0.100137        9.121236       
92              396.034000      3168.632734     343.618398      0.100135        9.221371       
93              396.250000      3208.312020     344.183797      0.100137        9.321508       
94              396.043000      3247.970182     344.734972      0.100136        9.421644       
95              395.859000      3287.622190     345.272784      0.100167        9.521811       
96              395.919000      3327.266747     345.799845      0.100133        9.621944       
97              395.830000      3366.902393     346.315133      0.100133        9.722077       
98              396.371000      3406.591814     346.825425      0.100132        9.822209       
99              396.236000      3446.268113     347.324061      0.100133        9.922342       
100             395.976000      3485.919170     347.810144      0.100135        10.022477      
101             395.831000      3525.556103     348.285181      0.100136        10.122613      
102             396.077000      3565.227175     348.753433      0.100160        10.222773      
103             395.924000      3604.872629     349.210995      0.100134        10.322907      
104             395.270000      3644.449828     349.653453      0.100127        10.423034      
105             395.508000      3684.053626     350.089785      0.100134        10.523168      
106             395.140000      3723.619390     350.514411      0.100131        10.623299      
107             395.524000      3763.223603     350.934692      0.100131        10.723430      
108             395.805000      3802.853579     351.349772      0.100125        10.823555      
109             395.572000      3842.464181     351.755147      0.100135        10.923690      
110             395.907000      3882.107141     352.156189      0.100132        11.023822      
111             395.869000      3921.746692     352.549672      0.100133        11.123955      
112             396.188000      3961.434032     352.939135      0.100173        11.224128      
113             395.910000      4001.078480     353.319106      0.100135        11.324263      
114             395.891000      4040.720629     353.692246      0.100134        11.424397      
115             396.037000      4080.376606     354.060162      0.100132        11.524529      
116             396.159000      4120.045592     354.422798      0.100134        11.624663      
117             396.206000      4159.719283     354.779642      0.100134        11.724797      
118             396.037000      4199.375260     355.129004      0.100132        11.824929      
119             395.855000      4239.013805     355.470978      0.100134        11.925063      
120             396.000000      4278.666869     355.808464      0.100134        12.025197      
121             396.424000      4318.362389     356.143877      0.100134        12.125331      
122             395.961000      4358.011152     356.470000      0.100133        12.225464      
123             396.001000      4397.663920     356.791149      0.100133        12.325597      
124             396.455000      4437.362149     357.110781      0.100133        12.425730      
125             396.598000      4477.075093     357.426449      0.100134        12.525864      
126             396.758000      4516.804059     357.738379      0.100134        12.625998      
127             396.631000      4556.519911     358.044398      0.100133        12.726131      
128             396.733000      4596.260258     358.346543      0.100169        12.826300      
129             396.669000      4635.997765     358.643535      0.100178        12.926478      
130             397.110000      4675.761581     358.939219      0.100133        13.026611      
131             396.982000      4715.513374     359.229422      0.100135        13.126746      
132             396.580000      4755.224515     359.512184      0.100134        13.226880      
133             396.681000      4794.947357     359.791467      0.100138        13.327018      
134             396.739000      4834.661725     360.066919      0.100102        13.427120      
135             396.642000      4874.379075     360.337662      0.100134        13.527254      
136             396.707000      4914.102934     360.604903      0.100134        13.627388      
137             396.810000      4953.837106     360.868998      0.100134        13.727522      
138             397.166000      4993.606926     361.131845      0.100134        13.827656      
139             397.404000      5033.400578     361.392624      0.100134        13.927790      
140             397.038000      5073.157582     361.647068      0.100134        14.027924      
141             397.098000      5112.932506     361.898404      0.100164        14.128088      
142             397.398000      5152.725557     362.148240      0.100134        14.228222      
143             397.246000      5192.502991     362.393519      0.100133        14.328355      
144             396.877000      5232.243872     362.632835      0.100134        14.428489      
145             396.847000      5271.981353     362.868643      0.100133        14.528622      
146             396.762000      5311.711909     363.100651      0.100137        14.628759      
147             396.999000      5351.464610     363.331105      0.100133        14.728892      
148             397.240000      5391.241840     363.560077      0.100134        14.829026      
149             396.565000      5430.951083     363.781448      0.100133        14.929159      
150             396.724000      5470.676248     364.000929      0.100133        15.029292      
151             397.092000      5510.438658     364.219942      0.100134        15.129426      
152             397.060000      5550.197467     364.435862      0.100133        15.229559      
153             396.994000      5589.949270     364.648529      0.100132        15.329691      
154             397.029000      5629.705372     364.858666      0.100134        15.429825      
155             397.171000      5669.475296     365.067008      0.100133        15.529958      
156             397.342000      5709.262740     365.273777      0.100134        15.630092      
157             397.436000      5749.059596     365.478512      0.100134        15.730226      
158             396.966000      5788.808993     365.677683      0.100133        15.830359      
159             396.944000      5828.558568     365.874222      0.100139        15.930498      
160             397.126000      5868.323986     366.069432      0.100133        16.030631      
161             397.134000      5908.090601     366.262270      0.100134        16.130765      
162             397.134000      5947.856820     366.452726      0.100133        16.230898      
163             396.684000      5987.577979     366.638088      0.100133        16.331031      
164             396.626000      6027.293331     366.820837      0.100133        16.431164      
165             396.584000      6067.004873     367.001119      0.100134        16.531298      
166             397.016000      6106.759276     367.181830      0.100133        16.631431      
167             396.984000      6146.510872     367.360188      0.100134        16.731565      
168             396.854000      6186.249450     367.535651      0.100134        16.831699      
169             397.092000      6226.011463     367.710444      0.100133        16.931832      
170             397.125000      6265.776781     367.883376      0.100133        17.031965      
171             397.605000      6305.606862     368.057164      0.100175        17.132140      
172             397.271000      6345.388785     368.226928      0.100138        17.232278      
173             397.025000      6385.144090     368.393300      0.100133        17.332411      
174             397.140000      6424.905746     368.558401      0.100120        17.432531      
175             397.263000      6464.684882     368.722339      0.100133        17.532664      
176             397.386000      6504.476335     368.885114      0.100133        17.632797      
177             397.052000      6544.234343     369.044165      0.100133        17.732930      
178             396.841000      6583.971619     369.200246      0.100134        17.833064      
179             396.959000      6623.720315     369.355242      0.100133        17.933197      
180             397.446000      6663.520160     369.511230      0.100139        18.033336      
181             397.323000      6703.305304     369.664806      0.100133        18.133469      
182             397.109000      6743.069019     369.815521      0.100133        18.233602      
183             397.412000      6782.863473     369.966245      0.100134        18.333736      
184             397.644000      6822.680759     370.116591      0.100133        18.433869      
185             397.541000      6862.487732     370.264756      0.100133        18.534002      
186             397.373000      6902.277883     370.410426      0.100133        18.634135      
187             397.434000      6942.074539     370.554866      0.100134        18.734269      
188             397.396000      6981.866993     370.697567      0.100133        18.834402      
189             397.667000      7021.686582     370.840191      0.100133        18.934535      
190             396.931000      7061.432474     370.977444      0.100133        19.034668      
191             396.866000      7101.172254     371.112921      0.100134        19.134802      
192             397.075000      7140.932962     371.248075      0.100134        19.234936      
193             397.377000      7180.723513     371.383392      0.100133        19.335069      
194             397.284000      7220.510314     371.516854      0.100147        19.435216      
195             397.074000      7260.270128     371.647852      0.100132        19.535348      
196             397.274000      7300.050365     371.778535      0.100133        19.635481      
197             397.212000      7339.824792     371.907579      0.100134        19.735615      
198             397.650000      7379.643077     372.037531      0.100134        19.835749      
199             397.807000      7419.476685     372.166964      0.100133        19.935882      
200             397.256000      7459.255120     372.292351      0.100133        20.036015      
201             397.804000      7499.088428     372.419215      0.100133        20.136148      
202             397.888000      7538.930147     372.545239      0.100133        20.236281      
203             397.469000      7578.729911     372.667960      0.100133        20.336414      
204             397.101000      7618.493222     372.787675      0.100134        20.436548      
205             397.126000      7658.258243     372.906343      0.100132        20.536680      
206             396.885000      7697.999529     373.022691      0.100133        20.636813      
207             397.131000      7737.765447     373.139104      0.100133        20.736946      
