#timestep       power           acc-energy      avg-power       dt              acc-time       
1               122.306000      12.243442       122.306000      0.100105        0.100105       
2               122.306000      25.480743       122.306000      0.108231        0.208336       
3               122.268000      37.725638       122.293663      0.100148        0.308484       
4               122.158000      49.962205       122.260409      0.100170        0.408654       
5               122.004000      62.182370       122.209934      0.100162        0.508816       
6               121.793000      74.383593       122.141349      0.100180        0.608996       
7               121.786000      86.582531       122.091157      0.100167        0.709163       
8               121.691000      98.774144       122.041623      0.100185        0.809348       
9               121.662000      110.962730      121.999808      0.100184        0.909532       
10              121.727000      123.175721      121.972704      0.100331        1.009863       
11              121.727000      135.368384      121.950533      0.100164        1.110027       
12              121.695000      147.557356      121.929384      0.100160        1.210187       
13              121.667000      159.742792      121.909329      0.100154        1.310341       
14              147.332000      174.503985      123.715101      0.100190        1.410531       
15              176.168000      192.146858      127.192381      0.100148        1.510679       
16              205.514000      212.727852      132.061594      0.100144        1.610823       
17              234.797000      236.240659      138.074593      0.100141        1.710964       
18              264.058000      262.683955      145.040630      0.100142        1.811106       
19              293.661000      292.091755      152.827762      0.100142        1.911248       
20              323.348000      324.472470      161.317532      0.100142        2.011390       
21              331.578000      357.678017      169.392497      0.100144        2.111534       
22              382.120000      395.943514      179.024356      0.100140        2.211674       
23              411.730000      437.175392      189.104670      0.100143        2.311817       
24              415.141000      478.747196      198.489191      0.100139        2.411956       
25              414.809000      520.279118      207.110970      0.100123        2.512079       
26              414.849000      561.820437      215.074348      0.100136        2.612215       
27              415.003000      603.375518      222.455135      0.100132        2.712347       
28              414.973000      644.927594      229.309301      0.100132        2.812479       
29              414.820000      686.464350      235.686932      0.100132        2.912611       
30              414.404000      727.959866      241.626858      0.100133        3.012744       
31              414.264000      769.442192      247.180244      0.100135        3.112879       
32              413.591000      810.857126      252.366509      0.100135        3.213014       
33              413.464000      852.260998      257.235630      0.100139        3.313153       
34              413.648000      893.681640      261.824270      0.100135        3.413288       
35              413.926000      935.129707      266.159234      0.100134        3.513422       
36              414.109000      976.605622      270.259934      0.100157        3.613579       
37              414.297000      1018.092080     274.143763      0.100137        3.713716       
38              414.328000      1059.582472     277.824530      0.100139        3.813855       
39              414.371000      1101.077998     281.318120      0.100141        3.913996       
40              414.306000      1142.572816     284.636232      0.100155        4.014151       
41              414.742000      1184.104665     287.802917      0.100139        4.114290       
42              415.218000      1225.685426     290.830514      0.100142        4.214432       
43              415.049000      1267.274166     293.715334      0.100202        4.314634       
44              414.880000      1308.829376     296.464293      0.100162        4.414796       
45              414.696000      1350.357448     299.086665      0.100141        4.514937       
46              414.509000      1391.866380     301.591150      0.100140        4.615077       
47              414.809000      1433.405768     303.995651      0.100141        4.715218       
48              414.673000      1474.931122     306.297293      0.100140        4.815358       
49              414.875000      1516.476704     308.509271      0.100140        4.915498       
50              414.691000      1558.004276     310.629269      0.100141        5.015639       
51              414.692000      1599.531947     312.666289      0.100141        5.115780       
52              414.035000      1640.988444     314.612229      0.100128        5.215908       
53              414.165000      1682.462927     316.487535      0.100140        5.316048       
54              414.237000      1723.944206     318.294809      0.100139        5.416187       
55              414.341000      1765.435485     320.038338      0.100138        5.516325       
56              414.389000      1806.931571     321.720551      0.100138        5.616463       
57              414.513000      1848.440073     323.346001      0.100138        5.716601       
58              414.577000      1889.956229     324.916634      0.100141        5.816742       
59              414.914000      1931.506132     326.439805      0.100141        5.916883       
60              414.824000      1973.047852     327.910807      0.100143        6.017026       
61              415.190000      2014.626224     329.339638      0.100143        6.117169       
62              415.564000      2056.241634     330.728451      0.100142        6.217311       
63              415.316000      2097.832209     332.069302      0.100142        6.317453       
64              415.440000      2139.438525     333.370345      0.100150        6.417603       
65              415.523000      2181.049413     334.632568      0.100141        6.517744       
66              415.212000      2222.631650     335.851958      0.100147        6.617891       
67              415.377000      2264.228333     337.037394      0.100142        6.718033       
68              414.997000      2305.787378     338.182437      0.100143        6.818176       
69              415.109000      2347.357638     339.295953      0.100143        6.918319       
70              414.691000      2388.886039     340.371728      0.100143        7.018462       
71              414.678000      2430.412723     341.417042      0.100142        7.118604       
72              413.976000      2471.868694     342.423606      0.100141        7.218745       
73              414.046000      2513.341612     343.403814      0.100165        7.318910       
74              414.032000      2554.803190     344.357141      0.100141        7.419051       
75              414.489000      2596.310119     345.291151      0.100140        7.519191       
76              414.831000      2637.850880     346.205097      0.100139        7.619330       
77              414.700000      2679.378938     347.093640      0.100140        7.719470       
78              414.900000      2720.926609     347.961977      0.100139        7.819609       
79              415.180000      2762.503150     348.811913      0.100141        7.919750       
80              415.093000      2804.071393     349.639545      0.100142        8.019892       
81              415.284000      2845.658763     350.449119      0.100142        8.120034       
82              415.759000      2887.294532     351.244770      0.100144        8.220178       
83              415.495000      2928.903033     352.018075      0.100142        8.320320       
84              416.026000      2970.570117     352.779400      0.100155        8.420475       
85              415.833000      3012.210802     353.520434      0.100138        8.520613       
86              415.830000      3053.871562     354.244567      0.100187        8.620800       
87              415.957000      3095.526328     354.953207      0.100142        8.720942       
88              415.994000      3137.184799     355.646177      0.100142        8.821084       
89              416.046000      3178.848061     356.324166      0.100141        8.921225       
90              416.059000      3220.513458     356.987262      0.100143        9.021368       
91              415.892000      3262.162546     357.633970      0.100144        9.121512       
92              415.284000      3303.749501     358.260011      0.100141        9.221653       
93              415.317000      3345.338930     358.872943      0.100139        9.321792       
94              415.217000      3386.918761     359.471790      0.100140        9.421932       
95              415.307000      3428.507188     360.058982      0.100139        9.522071       
96              415.604000      3470.126189     360.637054      0.100141        9.622212       
97              415.546000      3511.740212     361.202632      0.100143        9.722355       
98              415.851000      3553.384362     361.759781      0.100142        9.822497       
99              416.222000      3595.066082     362.309434      0.100143        9.922640       
100             416.189000      3636.754486     362.847901      0.100167        10.022807      
101             416.348000      3678.448824     363.377160      0.100143        10.122950      
102             416.839000      3720.193165     363.900870      0.100145        10.223095      
103             416.992000      3761.951578     364.415888      0.100142        10.323237      
104             417.260000      3803.737664     364.923595      0.100144        10.423381      
105             416.921000      3845.488966     365.418403      0.100142        10.523523      
106             416.765000      3887.224647     365.902412      0.100142        10.623665      
107             416.740000      3928.957824     366.377148      0.100142        10.723807      
108             416.523000      3970.669687     366.841097      0.100143        10.823950      
109             416.322000      4012.361837     367.294701      0.100144        10.924094      
110             416.468000      4054.068192     367.741386      0.100143        11.024237      
111             416.321000      4095.761491     368.178723      0.100147        11.124384      
112             415.983000      4137.418861     368.605219      0.100142        11.224526      
113             416.025000      4179.080020     369.024539      0.100141        11.324667      
114             415.758000      4220.714442     369.434168      0.100141        11.424808      
115             416.200000      4262.423093     369.840809      0.100213        11.525021      
116             416.473000      4304.128699     370.242502      0.100140        11.625161      
117             416.337000      4345.814858     370.636118      0.100126        11.725287      
118             416.482000      4387.520116     371.024338      0.100137        11.825424      
119             416.760000      4429.253628     371.408377      0.100138        11.925562      
120             416.440000      4470.955930     371.783363      0.100140        12.025702      
121             416.708000      4512.680485     372.154328      0.100129        12.125831      
122             417.216000      4554.462165     372.523432      0.100144        12.225975      
123             417.062000      4596.227170     372.885276      0.100141        12.326116      
124             417.400000      4638.026441     373.244016      0.100142        12.426258      
125             417.371000      4679.821556     373.596778      0.100139        12.526397      
126             417.247000      4721.604253     373.942961      0.100139        12.626536      
127             417.347000      4763.396964     374.284482      0.100139        12.726675      
128             417.211000      4805.176474     374.619613      0.100140        12.826815      
129             417.211000      4846.974341     374.949696      0.100184        12.926999      
130             417.101000      4888.743252     375.273717      0.100141        13.027140      
131             416.869000      4930.488930     375.591025      0.100141        13.127281      
132             416.223000      4972.169918     375.898638      0.100141        13.227422      
133             416.017000      5013.829444     376.200075      0.100139        13.327561      
134             415.943000      5055.482808     376.496472      0.100142        13.427703      
135             416.317000      5097.172792     376.791244      0.100140        13.527843      
136             416.551000      5138.886210     377.083403      0.100140        13.627983      
137             416.582000      5180.589817     377.371438      0.100109        13.728092      
138             416.771000      5222.326515     377.656766      0.100143        13.828235      
139             417.108000      5264.096962     377.940415      0.100143        13.928378      
140             417.049000      5305.861500     378.219593      0.100143        14.028521      
141             417.202000      5347.641360     378.495897      0.100143        14.128664      
142             417.693000      5389.469972     378.771766      0.100142        14.228806      
143             417.607000      5431.290390     379.043180      0.100143        14.328949      
144             417.710000      5473.121122     379.311541      0.100143        14.429092      
145             417.241000      5514.904471     379.572968      0.100142        14.529234      
146             417.180000      5556.681710     379.830398      0.100142        14.629376      
147             417.151000      5598.456463     380.084133      0.100143        14.729519      
148             417.072000      5640.222887     380.333906      0.100142        14.829661      
149             416.903000      5681.973221     380.579199      0.100144        14.929805      
150             417.105000      5723.743367     380.822566      0.100143        15.029948      
151             416.734000      5765.476360     381.060257      0.100143        15.130091      
152             416.778000      5807.214176     381.295113      0.100144        15.230235      
153             416.227000      5848.895980     381.523297      0.100142        15.330377      
154             416.477000      5890.601570     381.750135      0.100139        15.430516      
155             416.561000      5932.315572     381.974590      0.100139        15.530655      
156             416.932000      5974.067143     382.198547      0.100140        15.630795      
157             416.697000      6015.793930     382.418151      0.100137        15.730932      
158             416.933000      6057.544767     382.636472      0.100138        15.831070      
159             417.271000      6099.329868     382.854174      0.100139        15.931209      
160             417.241000      6141.111964     383.068970      0.100139        16.031348      
161             417.365000      6182.906478     383.281868      0.100139        16.131487      
162             417.921000      6224.760430     383.495589      0.100148        16.231635      
163             417.862000      6266.604295     383.706306      0.100138        16.331773      
164             418.494000      6308.511866     383.918309      0.100139        16.431912      
165             418.105000      6350.380901     384.125389      0.100140        16.532052      
166             418.021000      6392.240688     384.329465      0.100138        16.632190      
167             417.956000      6434.094801     384.530714      0.100140        16.732330      
168             417.920000      6475.941549     384.729336      0.100131        16.832461      
169             417.549000      6517.754906     384.923433      0.100140        16.932601      
170             417.675000      6559.580463     385.115986      0.100139        17.032740      
171             417.337000      6601.401386     385.304444      0.100209        17.132949      
172             417.103000      6643.170498     385.489224      0.100141        17.233090      
173             416.960000      6684.925289     385.671044      0.100141        17.333231      
174             416.960000      6726.680914     385.850778      0.100143        17.433374      
175             417.403000      6768.480068     386.030985      0.100141        17.533515      
176             417.481000      6810.290373     386.209603      0.100149        17.633664      
177             417.507000      6852.099106     386.386333      0.100139        17.733803      
178             417.643000      6893.921459     386.561841      0.100139        17.833942      
179             417.878000      6935.768597     386.736707      0.100142        17.934084      
180             417.853000      6977.613650     386.909494      0.100143        18.034227      
181             417.823000      7019.454863     387.080204      0.100141        18.134368      
182             418.254000      7061.340074     387.251409      0.100143        18.234511      
183             418.189000      7103.219193     387.420390      0.100144        18.334655      
184             418.342000      7145.112379     387.588362      0.100141        18.434796      
185             418.342000      7187.006820     387.754523      0.100144        18.534940      
186             418.246000      7228.891648     387.918383      0.100144        18.635084      
187             418.148000      7270.766661     388.079967      0.100144        18.735228      
188             418.199000      7312.645945     388.240101      0.100142        18.835370      
189             418.139000      7354.519639     388.398225      0.100143        18.935513      
190             418.024000      7396.381817     388.554081      0.100143        19.035656      
191             417.767000      7438.218257     388.706960      0.100143        19.135799      
192             417.738000      7480.051376     388.858095      0.100142        19.235941      
193             417.075000      7521.818101     389.004231      0.100142        19.336083      
194             416.905000      7563.567801     389.147985      0.100142        19.436225      
195             416.994000      7605.325580     389.290719      0.100140        19.536365      
196             417.381000      7647.122949     389.433974      0.100142        19.636507      
197             417.458000      7688.927610     389.576164      0.100141        19.736648      
198             417.684000      7730.755321     389.718060      0.100142        19.836790      
199             418.031000      7772.613183     389.860259      0.100131        19.936921      
200             417.944000      7814.465260     390.000611      0.100138        20.037059      
201             418.353000      7856.357037     390.141598      0.100135        20.137194      
202             418.565000      7898.270043     390.282238      0.100135        20.237329      
203             418.942000      7940.220801     390.423349      0.100135        20.337464      
204             419.079000      7982.187372     390.563756      0.100140        20.437604      
205             418.707000      8024.115435     390.700975      0.100137        20.537741      
206             418.483000      8066.019811     390.835772      0.100134        20.637875      
207             418.434000      8107.919700     390.969032      0.100135        20.738010      
