#timestep       power           acc-energy      avg-power       dt              acc-time       
1               122.320000      12.249125       122.320000      0.100140        0.100140       
2               122.240000      25.448111       122.278494      0.107976        0.208116       
3               122.240000      37.689225       122.265989      0.100140        0.308256       
4               122.144000      49.920236       122.236078      0.100136        0.408392       
5               122.038000      62.140755       122.197073      0.100137        0.508529       
6               122.000000      74.359055       122.164647      0.100150        0.608679       
7               121.856000      86.563665       122.121037      0.100156        0.708835       
8               121.737000      98.756843       122.073490      0.100160        0.808995       
9               121.600000      110.936785      122.021324      0.100164        0.909159       
10              121.490000      123.105710      121.968596      0.100164        1.009323       
11              121.485000      135.273040      121.924941      0.100155        1.109478       
12              121.189000      147.410845      121.864006      0.100156        1.209634       
13              121.189000      159.548772      121.812390      0.100157        1.309791       
14              121.167000      171.684374      121.766544      0.100156        1.409947       
15              121.180000      183.825277      121.727631      0.100189        1.510136       
16              121.173000      195.959299      121.693140      0.100138        1.610274       
17              121.113000      208.090583      121.659166      0.100165        1.710439       
18              121.225000      220.232357      121.635149      0.100159        1.810598       
19              121.184000      232.370147      121.611500      0.100160        1.910758       
20              121.154000      244.505658      121.588712      0.100166        2.010924       
21              131.321000      257.658638      122.050454      0.100159        2.111083       
22              151.548000      272.836928      123.386505      0.100155        2.211238       
23              166.021000      289.465094      125.233936      0.100157        2.311395       
24              189.450000      308.439458      127.900918      0.100155        2.411550       
25              208.456000      329.317369      131.113076      0.100155        2.511705       
26              227.498000      352.102431      134.809075      0.100155        2.611860       
27              246.489000      376.789784      138.933466      0.100156        2.712016       
28              265.420000      403.371862      143.438090      0.100151        2.812167       
29              284.385000      431.853588      148.285126      0.100152        2.912319       
30              286.843000      460.583210      152.891859      0.100158        3.012477       
31              311.244000      491.755852      157.987148      0.100155        3.112632       
32              311.261000      522.929887      162.765241      0.100154        3.212786       
33              311.173000      554.095730      167.251865      0.100156        3.312942       
34              311.256000      585.266773      171.477200      0.100146        3.413088       
35              311.287000      616.438119      175.462181      0.100137        3.513225       
36              311.346000      647.613817      179.227742      0.100132        3.613357       
37              311.346000      678.786090      182.789851      0.100121        3.713478       
38              311.435000      709.966339      186.167161      0.100118        3.813596       
39              311.525000      741.155599      189.373981      0.100118        3.913714       
40              311.665000      772.359811      192.424405      0.100121        4.013835       
41              311.703000      803.570632      195.327532      0.100130        4.113965       
42              311.795000      834.795342      198.095290      0.100145        4.214110       
43              311.763000      866.027448      200.734686      0.100179        4.314289       
44              311.733000      897.241585      203.252428      0.100131        4.414420       
45              311.763000      928.458414      205.659128      0.100130        4.514550       
46              311.792000      959.675653      207.961834      0.100122        4.614672       
47              311.792000      990.892268      210.166698      0.100120        4.714792       
48              311.828000      1022.112175     212.280596      0.100119        4.814911       
49              311.887000      1053.341109     214.309773      0.100129        4.915040       
50              311.952000      1084.578422     216.259337      0.100135        5.015175       
51              311.952000      1115.814488     218.132500      0.100131        5.115306       
52              311.952000      1147.050866     219.933755      0.100132        5.215438       
53              311.922000      1178.281744     221.666447      0.100124        5.315562       
54              312.076000      1209.527105     223.337870      0.100121        5.415683       
55              312.083000      1240.776288     224.948899      0.100131        5.515814       
56              312.122000      1272.029376     226.503176      0.100131        5.615945       
57              312.194000      1303.289986     228.004274      0.100132        5.716077       
58              312.191000      1334.549983     229.453620      0.100131        5.816208       
59              312.197000      1365.810580     230.854010      0.100131        5.916339       
60              312.097000      1397.061477     232.206135      0.100132        6.016471       
61              312.098000      1428.312474     233.514007      0.100132        6.116603       
62              312.133000      1459.566976     234.780311      0.100132        6.216735       
63              312.177000      1490.825571     236.007155      0.100131        6.316866       
64              312.205000      1522.086970     237.196148      0.100131        6.416997       
65              312.205000      1553.368974     238.349353      0.100197        6.517194       
66              312.234000      1584.633277     239.467349      0.100131        6.617325       
67              312.234000      1615.897579     240.552015      0.100131        6.717456       
68              312.242000      1647.162995     241.604948      0.100132        6.817588       
69              312.242000      1678.428099     242.627389      0.100131        6.917719       
70              312.143000      1709.683290     243.619241      0.100131        7.017850       
71              312.214000      1740.945590     244.584186      0.100131        7.117981       
72              312.202000      1772.225420     245.522747      0.100191        7.218172       
73              312.239000      1803.490224     246.435577      0.100131        7.318303       
74              312.261000      1834.757542     247.324071      0.100132        7.418435       
75              312.206000      1866.019041     248.188157      0.100131        7.518566       
76              312.167000      1897.276635     249.029018      0.100131        7.618697       
77              312.195000      1928.537345     249.848435      0.100132        7.718829       
78              312.189000      1959.797142     250.646779      0.100131        7.818960       
79              312.192000      1991.057551     251.424980      0.100132        7.919092       
80              312.248000      2022.323255     252.184439      0.100131        8.019223       
81              312.432000      2053.607696     252.927443      0.100132        8.119355       
82              312.532000      2084.901838     253.653554      0.100131        8.219486       
83              312.527000      2116.195792     254.362134      0.100132        8.319618       
84              312.499000      2147.486942     255.053528      0.100132        8.419750       
85              312.531000      2178.781296     255.729046      0.100132        8.519882       
86              312.491000      2210.087269     256.388731      0.100182        8.620064       
87              312.564000      2241.384927     257.033779      0.100132        8.720196       
88              312.556000      2272.681785     257.664090      0.100132        8.820328       
89              312.668000      2303.989857     258.281508      0.100132        8.920460       
90              312.680000      2335.298818     258.885346      0.100131        9.020591       
91              312.668000      2366.606890     259.475799      0.100132        9.120723       
92              312.603000      2397.908766     260.052729      0.100133        9.220856       
93              312.556000      2429.205624     260.616753      0.100132        9.320988       
94              312.556000      2460.502169     261.168781      0.100131        9.421119       
95              312.556000      2491.799026     261.709205      0.100132        9.521251       
96              312.636000      2523.104207     262.239217      0.100133        9.621384       
97              312.636000      2554.409387     262.758311      0.100133        9.721517       
98              312.652000      2585.716795     263.266994      0.100135        9.821652       
99              312.604000      2617.018459     263.764910      0.100132        9.921784       
100             312.604000      2648.320123     264.252876      0.100132        10.021916      
101             312.604000      2679.622724     264.731202      0.100135        10.122051      
102             312.563000      2710.920908     265.199750      0.100134        10.222185      
103             312.675000      2742.228430     265.660267      0.100128        10.322313      
104             312.687000      2773.538718     266.112074      0.100133        10.422446      
105             312.776000      2804.868551     266.556278      0.100167        10.522613      
106             312.806000      2836.190754     266.992240      0.100133        10.622746      
107             312.838000      2867.516162     267.420360      0.100133        10.722879      
108             312.838000      2898.841569     267.840558      0.100133        10.823012      
109             312.865000      2930.169993     268.253303      0.100134        10.923146      
110             312.700000      2961.492839     268.657191      0.100169        11.023315      
111             312.710000      2992.805117     269.053749      0.100132        11.123447      
112             312.798000      3024.126519     269.444020      0.100133        11.223580      
113             312.798000      3055.447296     269.827382      0.100131        11.323711      
114             312.830000      3086.772215     270.204315      0.100134        11.423845      
115             312.766000      3118.090100     270.574134      0.100132        11.523977      
116             312.799000      3149.411602     270.937870      0.100133        11.624110      
117             312.829000      3180.736421     271.295652      0.100134        11.724244      
118             312.800000      3212.057711     271.647122      0.100132        11.824376      
119             312.800000      3243.379313     271.992693      0.100133        11.924509      
120             312.831000      3274.703707     272.332763      0.100132        12.024641      
121             313.076000      3306.053259     272.669246      0.100134        12.124775      
122             313.106000      3337.404876     273.000453      0.100131        12.224906      
123             313.106000      3368.762442     273.326340      0.100150        12.325056      
124             313.137000      3400.121234     273.647204      0.100144        12.425200      
125             313.137000      3431.476581     273.962902      0.100133        12.525333      
126             313.167000      3462.834932     274.273831      0.100133        12.625466      
127             313.170000      3494.193584     274.579891      0.100133        12.725599      
128             313.167000      3525.551622     274.881145      0.100132        12.825731      
129             313.196000      3556.926344     275.178086      0.100176        12.925907      
130             313.170000      3588.284683     275.470132      0.100132        13.026039      
131             313.167000      3619.643034     275.757703      0.100133        13.126172      
132             313.170000      3651.001999     276.040944      0.100134        13.226306      
133             313.197000      3682.363041     276.320127      0.100132        13.326438      
134             313.169000      3713.721279     276.594937      0.100132        13.426570      
135             313.202000      3745.083448     276.865927      0.100134        13.526704      
136             313.195000      3776.442724     277.132866      0.100127        13.626831      
137             313.201000      3807.804480     277.395969      0.100133        13.726964      
138             313.233000      3839.169440     277.655493      0.100133        13.827097      
139             313.265000      3870.537604     277.911516      0.100133        13.927230      
140             313.330000      3901.912277     278.164348      0.100133        14.027363      
141             313.282000      3933.282457     278.413257      0.100134        14.127497      
142             313.281000      3964.651910     278.658651      0.100132        14.227629      
143             313.328000      3996.026382     278.900946      0.100133        14.327762      
144             313.328000      4027.411822     279.139961      0.100168        14.427930      
145             313.363000      4058.790112     279.375842      0.100134        14.528064      
146             313.402000      4090.172621     279.608763      0.100135        14.628199      
147             313.432000      4121.557508     279.838715      0.100133        14.728332      
148             313.402000      4152.939077     280.065358      0.100132        14.828464      
149             313.402000      4184.320959     280.288962      0.100133        14.928597      
150             313.433000      4215.705633     280.509791      0.100132        15.028729      
151             313.463000      4247.093623     280.727898      0.100133        15.128862      
152             313.561000      4278.491427     280.943780      0.100133        15.228995      
153             313.527000      4309.885512     281.156619      0.100132        15.329127      
154             313.527000      4341.279598     281.366694      0.100132        15.429259      
155             313.552000      4372.675873     281.574220      0.100131        15.529390      
156             313.521000      4404.069671     281.778892      0.100133        15.629523      
157             313.493000      4435.460353     281.980778      0.100132        15.729655      
158             313.493000      4466.851347     282.180112      0.100133        15.829788      
159             313.597000      4498.252756     282.377593      0.100133        15.929921      
160             313.597000      4529.654164     282.572608      0.100133        16.030054      
161             313.597000      4561.061217     282.765236      0.100151        16.130205      
162             313.597000      4592.462625     282.955452      0.100133        16.230338      
163             313.630000      4623.867966     283.143542      0.100135        16.330473      
164             313.645000      4655.273867     283.329425      0.100132        16.430605      
165             313.598000      4686.675062     283.512771      0.100132        16.530737      
166             313.585000      4718.074955     283.693832      0.100132        16.630869      
167             313.650000      4749.481357     283.873114      0.100132        16.731001      
168             313.736000      4780.896684     284.050777      0.100133        16.831134      
169             313.710000      4812.309407     284.226184      0.100133        16.931267      
170             313.698000      4843.720615     284.399456      0.100132        17.031399      
171             313.698000      4875.148449     284.570793      0.100185        17.131584      
172             313.736000      4906.563462     284.740270      0.100132        17.231716      
173             313.710000      4937.976500     284.907641      0.100134        17.331850      
174             313.621000      4969.379997     285.072575      0.100132        17.431982      
175             313.669000      5000.788615     285.235901      0.100133        17.532115      
176             313.741000      5032.204443     285.397780      0.100133        17.632248      
177             313.703000      5063.615838     285.557614      0.100131        17.732379      
178             313.711000      5095.028662     285.715701      0.100133        17.832512      
179             313.736000      5126.443675     285.872160      0.100132        17.932644      
180             313.622000      5157.847273     286.026249      0.100132        18.032776      
181             313.622000      5189.251185     286.178637      0.100133        18.132909      
182             313.503000      5220.643181     286.328698      0.100133        18.233042      
183             313.507000      5252.035263     286.477140      0.100132        18.333174      
184             313.533000      5283.430263     286.624113      0.100133        18.433307      
185             313.623000      5314.833648     286.769980      0.100131        18.533438      
186             313.658000      5346.241164     286.914471      0.100133        18.633571      
187             313.606000      5377.649119     287.057165      0.100151        18.733722      
188             313.644000      5409.055234     287.198517      0.100133        18.833855      
189             313.611000      5440.457730     287.338199      0.100132        18.933987      
190             313.780000      5471.897859     287.477392      0.100198        19.034185      
191             313.816000      5503.320882     287.615225      0.100132        19.134317      
192             313.816000      5534.744220     287.751624      0.100133        19.234450      
193             313.911000      5566.176442     287.887099      0.100131        19.334581      
194             313.911000      5597.609292     288.021182      0.100133        19.434714      
195             313.935000      5629.043918     288.154010      0.100131        19.534845      
196             313.935000      5660.479171     288.285486      0.100133        19.634978      
197             313.841000      5691.904698     288.415149      0.100132        19.735110      
198             313.840000      5723.330125     288.543499      0.100132        19.835242      
199             313.841000      5754.755652     288.670564      0.100132        19.935374      
200             313.879000      5786.185298     288.796550      0.100133        20.035507      
201             313.841000      5817.610825     288.921093      0.100132        20.135639      
202             313.871000      5849.039670     289.044553      0.100133        20.235772      
203             313.906000      5880.471706     289.166968      0.100132        20.335904      
204             313.988000      5911.911952     289.288586      0.100132        20.436036      
205             313.949000      5943.348293     289.408827      0.100132        20.536168      
206             313.988000      5974.788854     289.528092      0.100133        20.636301      
207             314.004000      6006.231958     289.646286      0.100136        20.736437      
