#timestep       power           acc-energy      avg-power       dt              acc-time       
1               119.489000      11.958818       119.489000      0.100083        0.100083       
2               119.489000      25.001281       119.489000      0.109152        0.209235       
3               119.391000      36.955424       119.457282      0.100126        0.309361       
4               119.370000      48.909255       119.435938      0.100141        0.409502       
5               119.269000      60.855119       119.403131      0.100159        0.509661       
6               119.298000      72.803649       119.385864      0.100157        0.609818       
7               119.123000      84.734889       119.348781      0.100159        0.709977       
8               119.145000      96.668095       119.323587      0.100157        0.810134       
9               119.002000      108.590668      119.288194      0.100188        0.910322       
10              118.972000      120.506665      119.256853      0.100158        1.010480       
11              118.913000      132.418418      119.225841      0.100172        1.110652       
12              118.913000      144.328506      119.199962      0.100158        1.210810       
13              118.868000      156.234088      119.174600      0.100158        1.310968       
14              118.835000      168.136364      119.150497      0.100158        1.411126       
15              118.835000      180.038283      119.129588      0.100155        1.511281       
16              118.815000      191.938675      119.110035      0.100159        1.611440       
17              118.741000      203.835810      119.088433      0.100194        1.711634       
18              118.749000      215.729354      119.069669      0.100157        1.811791       
19              118.704000      227.618509      119.050513      0.100158        1.911949       
20              118.769000      239.514293      119.036500      0.100159        2.012108       
21              118.764000      251.408152      119.023580      0.100147        2.112255       
22              141.101000      265.537441      120.022836      0.100136        2.212391       
23              164.061000      281.972088      121.930449      0.100174        2.312565       
24              180.200000      300.015694      124.348734      0.100131        2.412696       
25              209.098000      320.958532      127.726693      0.100158        2.512854       
26              231.552000      344.144297      131.705373      0.100132        2.612986       
27              255.263000      369.703781      136.265379      0.100130        2.713116       
28              264.120000      396.150381      140.816068      0.100131        2.813247       
29              285.364000      424.724449      145.784139      0.100132        2.913379       
30              306.796000      455.443932      151.134087      0.100130        3.013509       
31              348.983000      490.388298      157.496737      0.100132        3.113641       
32              349.322000      525.365910      163.473349      0.100130        3.213771       
33              350.275000      560.439296      169.117643      0.100131        3.313902       
34              351.644000      595.649761      174.471003      0.100131        3.414033       
35              351.833000      630.879151      179.524675      0.100131        3.514164       
36              352.543000      666.179634      184.318002      0.100131        3.614295       
37              353.536000      701.579548      188.879667      0.100131        3.714426       
38              353.296000      736.953663      193.195338      0.100126        3.814552       
39              353.527000      772.353028      197.296392      0.100132        3.914684       
40              353.562000      807.753777      201.193525      0.100126        4.014810       
41              353.609000      843.161000      204.902330      0.100131        4.114941       
42              353.733000      878.580993      208.437907      0.100132        4.215073       
43              353.794000      914.026552      211.812626      0.100187        4.315260       
44              353.889000      949.462166      215.034626      0.100132        4.415392       
45              353.976000      984.917110      218.116561      0.100162        4.515554       
46              353.976000      1020.361081     221.063847      0.100131        4.615685       
47              354.080000      1055.815819     223.888208      0.100132        4.715817       
48              354.145000      1091.278483     226.596581      0.100136        4.815953       
49              354.109000      1126.736125     229.193784      0.100132        4.916085       
50              354.108000      1162.193667     231.687279      0.100132        5.016217       
51              354.174000      1197.657464     234.084442      0.100131        5.116348       
52              354.279000      1233.132129     236.391614      0.100132        5.216480       
53              354.344000      1268.613657     238.613128      0.100133        5.316613       
54              354.439000      1304.104343     240.754243      0.100132        5.416745       
55              354.436000      1339.594374     242.817561      0.100131        5.516876       
56              354.471000      1375.087910     244.807939      0.100131        5.617007       
57              354.466000      1410.581299     246.728530      0.100132        5.717139       
58              354.525000      1446.080242     248.583999      0.100131        5.817270       
59              354.584000      1481.585447     250.377691      0.100132        5.917402       
60              354.584000      1517.090652     252.111688      0.100132        6.017534       
61              354.584000      1552.595503     253.788905      0.100131        6.117665       
62              354.613000      1588.103257     255.412570      0.100131        6.217796       
63              354.639000      1623.613969     256.985197      0.100132        6.317928       
64              354.606000      1659.118186     258.508102      0.100123        6.418051       
65              354.629000      1694.627542     259.984692      0.100131        6.518182       
66              354.699000      1730.143908     261.417662      0.100131        6.618313       
67              354.728000      1765.663177     262.808349      0.100131        6.718444       
68              354.695000      1801.179497     264.157721      0.100132        6.818576       
69              354.728000      1836.698766     265.468500      0.100131        6.918707       
70              354.859000      1872.229378     266.743685      0.100126        7.018833       
71              354.818000      1907.758014     267.982497      0.100132        7.118965       
72              354.798000      1943.301323     269.187223      0.100179        7.219144       
73              354.830000      1978.830806     270.358855      0.100131        7.319275       
74              354.932000      2014.371212     271.500261      0.100133        7.419408       
75              354.867000      2049.904754     272.610393      0.100132        7.519540       
76              354.888000      2085.440045     273.691613      0.100131        7.619671       
77              354.936000      2120.980496     274.745417      0.100132        7.719803       
78              354.977000      2156.524698     275.772749      0.100131        7.819934       
79              354.965000      2192.068054     276.773963      0.100132        7.920066       
80              354.932000      2227.607750     277.749755      0.100131        8.020197       
81              354.997000      2263.153954     278.702283      0.100131        8.120328       
82              355.059000      2298.706722     279.632371      0.100132        8.220460       
83              355.026000      2334.256186     280.539676      0.100132        8.320592       
84              355.060000      2369.809053     281.425808      0.100132        8.420724       
85              355.090000      2405.364925     282.291465      0.100132        8.520856       
86              355.187000      2440.947559     283.138541      0.100180        8.621036       
87              355.121000      2476.506180     283.964999      0.100131        8.721167       
88              355.121000      2512.065156     284.772703      0.100132        8.821299       
89              355.191000      2547.631141     285.563061      0.100132        8.921431       
90              355.061000      2583.183754     286.334423      0.100131        9.021562       
91              355.061000      2618.736367     287.088851      0.100131        9.121693       
92              355.091000      2654.292339     287.827229      0.100132        9.221825       
93              355.091000      2689.848311     288.549745      0.100132        9.321957       
94              355.151000      2725.410291     289.257541      0.100132        9.422089       
95              355.124000      2760.969567     289.950167      0.100132        9.522221       
96              355.094000      2796.525840     290.628066      0.100132        9.622353       
97              355.094000      2832.081757     291.291995      0.100131        9.722484       
98              355.188000      2867.647797     291.943359      0.100133        9.822617       
99              355.188000      2903.211351     292.581532      0.100126        9.922743       
100             355.188000      2938.774549     293.206949      0.100125        10.022868      
101             355.337000      2974.370433     293.821772      0.100175        10.123043      
102             355.436000      3009.961662     294.425271      0.100134        10.223177      
103             355.431000      3045.564119     295.017207      0.100167        10.323344      
104             355.436000      3081.154992     295.597620      0.100133        10.423477      
105             355.535000      3116.755422     296.167923      0.100132        10.523609      
106             355.462000      3152.348899     296.726794      0.100133        10.623742      
107             355.493000      3187.945124     297.275511      0.100132        10.723874      
108             355.503000      3223.542350     297.814169      0.100132        10.824006      
109             355.527000      3259.142335     298.343177      0.100133        10.924139      
110             355.612000      3294.750832     298.863347      0.100133        11.024272      
111             355.578000      3330.355568     299.373842      0.100132        11.124404      
112             355.578000      3365.960304     299.875229      0.100132        11.224536      
113             355.649000      3401.572150     300.368377      0.100132        11.324668      
114             355.756000      3437.195065     300.853824      0.100133        11.424801      
115             355.757000      3472.817725     301.330839      0.100132        11.524933      
116             355.860000      3508.450699     301.800523      0.100132        11.625065      
117             355.911000      3544.089135     302.262626      0.100133        11.725198      
118             355.945000      3579.730976     302.717190      0.100133        11.825331      
119             355.963000      3615.378178     303.164317      0.100143        11.925474      
120             355.945000      3651.019663     303.603799      0.100132        12.025606      
121             355.945000      3686.661504     304.036026      0.100133        12.125739      
122             355.976000      3722.306093     304.461424      0.100132        12.225871      
123             355.931000      3757.946532     304.879548      0.100133        12.326004      
124             355.950000      3793.588873     305.291087      0.100133        12.426137      
125             355.964000      3829.232260     305.696154      0.100132        12.526269      
126             356.036000      3864.883213     306.095372      0.100133        12.626402      
127             356.036000      3900.539506     306.488365      0.100148        12.726550      
128             356.066000      3936.193107     306.875395      0.100132        12.826682      
129             356.131000      3971.869954     307.257110      0.100179        12.926861      
130             356.131000      4007.530064     307.632779      0.100132        13.026993      
131             356.128000      4043.190229     308.002698      0.100133        13.127126      
132             356.158000      4078.869069     308.367403      0.100177        13.227303      
133             356.131000      4114.534520     308.726314      0.100147        13.327450      
134             356.131000      4150.194629     309.079820      0.100132        13.427582      
135             356.127000      4185.854694     309.428066      0.100133        13.527715      
136             356.065000      4221.508551     309.770739      0.100133        13.627848      
137             356.068000      4257.162708     310.108435      0.100133        13.727981      
138             356.003000      4292.810000     310.440767      0.100132        13.828113      
139             355.970000      4328.454344     310.768086      0.100133        13.928246      
140             355.990000      4364.100691     311.090874      0.100133        14.028379      
141             356.023000      4399.749986     311.409319      0.100132        14.128511      
142             356.023000      4435.399281     311.723281      0.100132        14.228643      
143             356.122000      4471.058845     312.033550      0.100133        14.328776      
144             356.187000      4506.724562     312.339961      0.100132        14.428908      
145             356.239000      4542.395842     312.642510      0.100133        14.529041      
146             356.239000      4578.066765     312.940914      0.100132        14.629173      
147             356.221000      4613.736243     313.235141      0.100133        14.729306      
148             356.324000      4649.416034     313.526090      0.100133        14.829439      
149             356.273000      4685.090362     313.812792      0.100132        14.929571      
150             356.273000      4720.764690     314.095674      0.100132        15.029703      
151             356.304000      4756.442122     314.375016      0.100132        15.129835      
152             356.334000      4792.122558     314.650883      0.100132        15.229967      
153             356.334000      4827.803350     314.923148      0.100133        15.330100      
154             356.364000      4863.486790     315.192072      0.100132        15.430232      
155             356.325000      4899.166325     315.457276      0.100132        15.530364      
156             356.364000      4934.849765     315.719333      0.100132        15.630496      
157             356.393000      4970.536466     315.978240      0.100133        15.730629      
158             356.423000      5006.226170     316.234062      0.100133        15.830762      
159             356.423000      5041.915518     316.486665      0.100132        15.930894      
160             356.554000      5077.618696     316.736936      0.100134        16.031028      
161             356.521000      5113.318213     316.983893      0.100133        16.131161      
162             356.512000      5149.016473     317.227745      0.100132        16.231293      
163             356.521000      5184.715990     317.468664      0.100133        16.331426      
164             356.542000      5220.417610     317.706775      0.100133        16.431559      
165             356.572000      5256.122234     317.942182      0.100133        16.531692      
166             356.554000      5291.824699     318.174645      0.100132        16.631824      
167             356.572000      5327.528967     318.404433      0.100132        16.731956      
168             356.667000      5363.243460     318.632057      0.100134        16.832090      
169             356.725000      5398.963048     318.857327      0.100132        16.932222      
170             356.725000      5434.682636     319.079948      0.100132        17.032354      
171             356.692000      5470.414257     319.299869      0.100175        17.132529      
172             356.796000      5506.141311     319.517745      0.100133        17.232662      
173             356.762000      5541.865317     319.732911      0.100134        17.332796      
174             356.763000      5577.589066     319.945608      0.100133        17.432929      
175             356.795000      5613.315663     320.156056      0.100132        17.533061      
176             356.861000      5649.049226     320.364491      0.100133        17.633194      
177             356.881000      5684.784791     320.570685      0.100133        17.733327      
178             356.823000      5720.514548     320.774238      0.100133        17.833460      
179             356.813000      5756.242948     320.975460      0.100132        17.933592      
180             356.813000      5791.971704     321.174450      0.100133        18.033725      
181             356.783000      5827.697456     321.371076      0.100133        18.133858      
182             356.813000      5863.426212     321.565707      0.100133        18.233991      
183             356.879000      5899.161220     321.758571      0.100132        18.334123      
184             356.912000      5934.899889     321.949521      0.100133        18.434256      
185             356.898000      5970.636800     322.138330      0.100132        18.534388      
186             356.879000      6006.372522     322.325012      0.100134        18.634522      
187             356.838000      6042.103424     322.509475      0.100132        18.734654      
188             356.621000      6077.812598     322.690823      0.100132        18.834786      
189             356.621000      6113.521772     322.870253      0.100132        18.934918      
190             356.644000      6149.224333     323.047873      0.100107        19.035025      
191             356.676000      6184.928314     323.223792      0.100102        19.135127      
192             356.742000      6220.650318     323.398280      0.100134        19.235261      
193             356.442000      6256.341924     323.569405      0.100133        19.335394      
194             356.500000      6292.039695     323.739067      0.100134        19.435528      
195             356.437000      6327.730445     323.906663      0.100132        19.535660      
196             356.437000      6363.421195     324.072551      0.100132        19.635792      
197             356.467000      6399.115305     324.236908      0.100133        19.735925      
198             356.439000      6434.806255     324.399464      0.100132        19.836057      
199             356.641000      6470.517788     324.561403      0.100133        19.936190      
200             356.641000      6506.228965     324.721721      0.100132        20.036322      
201             356.575000      6541.933889     324.880119      0.100133        20.136455      
202             356.591000      6577.640059     325.037026      0.100132        20.236587      
203             356.842000      6613.371719     325.193626      0.100133        20.336720      
204             356.813000      6649.100118     325.348548      0.100132        20.436852      
205             356.781000      6684.825314     325.501803      0.100132        20.536984      
206             356.778000      6720.550208     325.653556      0.100132        20.637116      
207             356.778000      6756.275460     325.803845      0.100133        20.737249      
