#timestep       power           acc-energy      avg-power       dt              acc-time       
1               121.124000      12.129963       121.124000      0.100145        0.100145       
2               121.124000      25.686040       121.124000      0.111919        0.212064       
3               121.095000      37.807407       121.114701      0.100098        0.312162       
4               120.952000      49.917121       121.075190      0.100120        0.412282       
5               120.942000      62.027528       121.049163      0.100134        0.512416       
6               120.876000      74.131325       121.020856      0.100134        0.612550       
7               120.749000      86.222405       120.982659      0.100134        0.712684       
8               120.673000      98.305876       120.944511      0.100134        0.812818       
9               120.602000      110.382236      120.906944      0.100134        0.912952       
10              120.431000      122.441354      120.859902      0.100133        1.013085       
11              120.419000      134.504086      120.820229      0.100173        1.113258       
12              119.294000      146.453050      120.694244      0.100164        1.213422       
13              119.294000      158.403804      120.587457      0.100179        1.313601       
14              119.326000      170.352871      120.498105      0.100138        1.413739       
15              119.330000      182.317374      120.420748      0.100264        1.514003       
16              119.270000      194.260595      120.349360      0.100136        1.614139       
17              119.248000      206.201255      120.285028      0.100133        1.714272       
18              119.248000      218.142273      120.227795      0.100136        1.814408       
19              119.229000      230.081030      120.175556      0.100133        1.914541       
20              119.182000      242.015200      120.126174      0.100134        2.014675       
21              119.209000      253.951955      120.082748      0.100133        2.114808       
22              138.335000      267.803854      120.907895      0.100133        2.214941       
23              156.752000      283.505075      122.458735      0.100166        2.315107       
24              175.198000      301.048176      124.645243      0.100133        2.415240       
25              194.040000      320.478565      127.407817      0.100136        2.515376       
26              221.928000      342.701991      131.026632      0.100138        2.615514       
27              230.900000      365.824086      134.709437      0.100139        2.715653       
28              249.477000      390.805216      138.790760      0.100134        2.815787       
29              268.367000      417.678414      143.240550      0.100136        2.915923       
30              287.298000      446.449585      148.023762      0.100144        3.016067       
31              325.204000      479.014538      153.717323      0.100137        3.116204       
32              325.236000      511.583021      159.057408      0.100138        3.216342       
33              326.081000      544.234490      164.100284      0.100133        3.316475       
34              326.894000      576.968674      168.871582      0.100137        3.416612       
35              327.248000      609.739289      173.381373      0.100140        3.516752       
36              327.679000      642.560600      177.654327      0.100163        3.616915       
37              329.133000      675.518004      181.735028      0.100134        3.717049       
38              329.875000      708.549707      185.621100      0.100134        3.817183       
39              330.318000      741.626100      189.319861      0.100135        3.917318       
40              330.661000      774.736178      192.842720      0.100133        4.017451       
41              330.765000      807.882470      196.199316      0.100211        4.117662       
42              330.731000      841.000549      199.393273      0.100136        4.217798       
43              330.701000      874.158285      202.442226      0.100265        4.318063       
44              330.726000      907.266934      205.348939      0.100109        4.418172       
45              330.726000      940.370292      208.126414      0.100093        4.518265       
46              330.655000      973.473817      210.782529      0.100115        4.618380       
47              330.570000      1006.575113     213.324600      0.100134        4.718514       
48              330.517000      1039.671103     215.759919      0.100134        4.818648       
49              330.539000      1072.768964     218.096509      0.100133        4.918781       
50              330.569000      1105.869830     220.340462      0.100133        5.018914       
51              330.597000      1138.973169     222.497154      0.100132        5.119046       
52              330.625000      1172.079642     224.571650      0.100133        5.219179       
53              330.785000      1205.201805     226.571036      0.100132        5.319311       
54              330.887000      1238.334513     228.498443      0.100133        5.419444       
55              330.936000      1271.472128     230.356806      0.100133        5.519577       
56              331.054000      1304.621227     232.151029      0.100132        5.619709       
57              331.117000      1337.777959     233.883603      0.100136        5.719845       
58              331.301000      1370.940195     235.559082      0.100097        5.819942       
59              331.418000      1404.113148     237.179833      0.100094        5.920036       
60              331.388000      1437.296023     238.746790      0.100133        6.020169       
61              331.351000      1470.475193     240.261868      0.100133        6.120302       
62              331.215000      1503.640413     241.725965      0.100132        6.220434       
63              331.148000      1536.799587     243.142640      0.100134        6.320568       
64              331.113000      1569.954594     244.514554      0.100132        6.420700       
65              331.015000      1603.100119     245.842842      0.100133        6.520833       
66              331.051000      1636.249580     247.131511      0.100134        6.620967       
67              330.949000      1669.388165     248.380237      0.100132        6.721099       
68              330.882000      1702.520372     249.591331      0.100133        6.821232       
69              330.882000      1735.654565     250.767451      0.100139        6.921371       
70              330.914000      1768.789976     251.910414      0.100133        7.021504       
71              331.012000      1801.935532     253.022624      0.100134        7.121638       
72              331.147000      1835.094275     254.105852      0.100133        7.221771       
73              331.231000      1868.250166     255.160248      0.100099        7.321870       
74              331.343000      1901.417269     256.187714      0.100099        7.421969       
75              331.348000      1934.608399     257.188600      0.100170        7.522139       
76              331.469000      1967.800047     258.164433      0.100135        7.622274       
77              331.532000      2000.997009     259.115748      0.100132        7.722406       
78              331.642000      2034.206312     260.044153      0.100136        7.822542       
79              331.590000      2067.409745     260.948415      0.100134        7.922676       
80              331.590000      2100.612847     261.830096      0.100133        8.022809       
81              331.530000      2133.809609     262.689291      0.100132        8.122941       
82              331.498000      2167.003498     263.527180      0.100133        8.223074       
83              331.380000      2200.185572     264.343488      0.100133        8.323207       
84              331.319000      2233.361206     265.139656      0.100132        8.423339       
85              331.318000      2266.538396     265.917144      0.100137        8.523476       
86              331.243000      2299.722983     266.676042      0.100182        8.623658       
87              331.287000      2332.888455     267.417495      0.100111        8.723769       
88              331.205000      2366.053999     268.141373      0.100136        8.823905       
89              331.341000      2399.221565     268.850286      0.100101        8.924006       
90              331.376000      2432.403901     269.544093      0.100135        9.024141       
91              331.471000      2465.595418     270.223707      0.100134        9.124275       
92              331.529000      2498.792411     270.889190      0.100133        9.224408       
93              331.808000      2532.018005     271.543389      0.100135        9.324543       
94              331.840000      2565.245808     272.184007      0.100132        9.424675       
95              331.958000      2598.482771     272.812347      0.100124        9.524799       
96              331.811000      2631.698047     273.425958      0.100103        9.624902       
97              331.655000      2664.898039     274.025336      0.100104        9.725006       
98              331.512000      2698.083054     274.611033      0.100102        9.825108       
99              331.500000      2731.278138     275.184987      0.100136        9.925244       
100             331.471000      2764.458053     275.746980      0.100099        10.025343      
101             331.375000      2797.627034     276.296890      0.100095        10.125438      
102             331.407000      2830.795241     276.836284      0.100083        10.225521      
103             331.346000      2863.959993     277.364673      0.100091        10.325612      
104             331.410000      2897.128832     277.883494      0.100084        10.425696      
105             331.236000      2930.278268     278.390764      0.100078        10.525774      
106             331.507000      2963.452505     278.890997      0.100071        10.625845      
107             331.709000      2996.647288     279.383785      0.100072        10.725917      
108             331.844000      3029.856576     279.868725      0.100075        10.825992      
109             331.897000      3063.069509     280.345243      0.100070        10.926062      
110             332.050000      3096.312695     280.814710      0.100115        11.026177      
111             332.084000      3129.566590     281.276134      0.100137        11.126314      
112             332.237000      3162.824179     281.730534      0.100102        11.226416      
113             332.298000      3196.090864     282.177482      0.100111        11.326527      
114             332.328000      3229.369193     282.616973      0.100137        11.426664      
115             332.421000      3262.651515     283.049568      0.100121        11.526785      
116             332.355000      3295.923575     283.474098      0.100110        11.626895      
117             332.283000      3329.178125     283.890638      0.100079        11.726974      
118             332.172000      3362.421566     284.299188      0.100079        11.827053      
119             332.080000      3395.654805     284.700099      0.100076        11.927129      
120             332.080000      3428.891031     285.094373      0.100085        12.027214      
121             332.047000      3462.140890     285.482062      0.100136        12.127350      
122             331.947000      3495.381066     285.862587      0.100137        12.227487      
123             331.960000      3528.610262     286.236898      0.100100        12.327587      
124             331.991000      3561.840238     286.605403      0.100093        12.427680      
125             331.981000      3595.062240     286.967865      0.100072        12.527752      
126             332.079000      3628.294382     287.325361      0.100073        12.627825      
127             332.183000      3661.535935     287.678044      0.100070        12.727895      
128             332.384000      3694.797602     288.026792      0.100070        12.827965      
129             332.385000      3728.073661     288.370295      0.100113        12.928078      
130             332.445000      3761.341432     288.708835      0.100070        13.028148      
131             332.511000      3794.616141     289.042721      0.100071        13.128219      
132             332.532000      3827.892950     289.371714      0.100071        13.228290      
133             332.374000      3861.153949     289.694581      0.100071        13.328361      
134             332.308000      3894.407678     290.012137      0.100069        13.428430      
135             332.257000      3927.656304     290.324618      0.100069        13.528499      
136             332.226000      3960.904485     290.632307      0.100077        13.628576      
137             332.105000      3994.141886     290.934640      0.100081        13.728657      
138             332.074000      4027.372531     291.232341      0.100070        13.828727      
139             331.911000      4060.586865     291.524592      0.100070        13.928797      
140             331.909000      4093.800335     291.812654      0.100068        14.028865      
141             331.879000      4127.012130     292.096435      0.100072        14.128937      
142             331.812000      4160.219543     292.375772      0.100079        14.229016      
143             331.865000      4193.432260     292.651578      0.100079        14.329095      
144             331.865000      4226.642323     292.923536      0.100071        14.429166      
145             332.018000      4259.866700     293.192793      0.100068        14.529234      
146             332.047000      4293.096968     293.458589      0.100077        14.629311      
147             332.144000      4326.341925     293.721472      0.100092        14.729403      
148             332.312000      4359.600375     293.981913      0.100082        14.829485      
149             332.415000      4392.869465     294.239556      0.100083        14.929568      
150             332.443000      4426.138698     294.493934      0.100075        15.029643      
151             332.565000      4459.418810     294.745744      0.100071        15.129714      
152             332.629000      4492.705327     294.994665      0.100071        15.229785      
153             332.625000      4525.991443     295.240310      0.100071        15.329856      
154             332.614000      4559.276792     295.482700      0.100072        15.429928      
155             332.614000      4592.564468     295.721983      0.100079        15.530007      
156             332.478000      4625.835874     295.957312      0.100071        15.630078      
157             332.411000      4659.100908     296.189223      0.100072        15.730150      
158             332.341000      4692.358271     296.417755      0.100070        15.830220      
159             332.303000      4725.618811     296.643224      0.100091        15.930311      
160             332.303000      4758.881012     296.865888      0.100096        16.030407      
161             332.341000      4792.143029     297.085999      0.100084        16.130491      
162             332.193000      4825.394551     297.302510      0.100097        16.230588      
163             332.265000      4858.636336     297.516700      0.100046        16.330634      
164             332.400000      4891.900933     297.729163      0.100074        16.430708      
165             332.465000      4925.174695     297.939463      0.100082        16.530790      
166             332.553000      4958.453607     298.147739      0.100071        16.630861      
167             332.741000      4991.751664     298.354650      0.100072        16.730933      
168             332.834000      5025.058030     298.559648      0.100069        16.831002      
169             332.867000      5058.368030     298.762419      0.100070        16.931072      
170             332.867000      5091.678031     298.962808      0.100070        17.031142      
171             332.983000      5125.016955     299.161635      0.100122        17.131264      
172             332.959000      5158.336495     299.357914      0.100071        17.231335      
173             332.930000      5191.652467     299.551754      0.100069        17.331404      
174             332.866000      5224.962368     299.743003      0.100070        17.431474      
175             332.803000      5258.266297     299.931711      0.100071        17.531545      
176             332.738000      5291.564054     300.117911      0.100072        17.631617      
177             332.676000      5324.854941     300.301654      0.100070        17.731687      
178             332.610000      5358.138891     300.482964      0.100069        17.831756      
179             332.640000      5391.426176     300.662419      0.100070        17.931826      
180             332.670000      5424.720122     300.840068      0.100081        18.031907      
181             332.673000      5458.012373     301.015762      0.100075        18.131982      
182             332.570000      5491.297974     301.188981      0.100086        18.232068      
183             332.617000      5524.590275     301.360575      0.100092        18.332160      
184             332.775000      5557.892400     301.531133      0.100074        18.432234      
185             332.844000      5591.200765     301.700218      0.100072        18.532306      
186             332.947000      5624.518771     301.868037      0.100070        18.632376      
187             332.989000      5657.841313     302.034289      0.100071        18.732447      
188             333.154000      5691.181367     302.199656      0.100074        18.832521      
189             333.177000      5724.523389     302.363395      0.100073        18.932594      
190             333.118000      5757.860506     302.525106      0.100076        19.032670      
191             333.022000      5791.187682     302.684622      0.100075        19.132745      
192             332.869000      5824.499880     302.841683      0.100076        19.232821      
193             332.777000      5857.805201     302.996653      0.100083        19.332904      
194             332.711000      5891.099923     303.149668      0.100071        19.432975      
195             332.715000      5924.395711     303.301139      0.100073        19.533048      
196             332.745000      5957.694169     303.451218      0.100072        19.633120      
197             332.613000      5990.981745     303.599115      0.100079        19.733199      
198             332.613000      6024.266661     303.745507      0.100071        19.833270      
199             332.546000      6057.545204     303.890096      0.100072        19.933342      
200             332.611000      6090.829587     304.033561      0.100070        20.033412      
201             332.715000      6124.125375     304.176121      0.100073        20.133485      
202             332.916000      6157.446272     304.318287      0.100088        20.233573      
203             332.930000      6190.771566     304.459134      0.100097        20.333670      
204             333.083000      6224.104181     304.599318      0.100073        20.433743      
205             333.181000      6257.446603     304.738613      0.100073        20.533816      
206             333.202000      6290.790461     304.876656      0.100071        20.633887      
207             333.279000      6324.145023     305.013750      0.100080        20.733967      
