#timestep       power           acc-energy      avg-power       dt              acc-time       
1               120.069000      12.021188       120.069000      0.100119        0.100119       
2               120.069000      25.148932       120.069000      0.109335        0.209454       
3               120.007000      37.162953       120.048950      0.100111        0.309565       
4               119.904000      49.168941       120.013524      0.100130        0.409695       
5               119.776000      61.165944       119.966862      0.100162        0.509857       
6               119.595000      73.143982       119.905808      0.100155        0.610012       
7               119.460000      85.105153       119.842950      0.100127        0.710139       
8               119.324000      97.059389       119.778791      0.100183        0.810322       
9               119.144000      108.989516      119.708976      0.100132        0.910454       
10              118.975000      120.902483      119.636253      0.100130        1.010584       
11              118.819000      132.800067      119.562577      0.100132        1.110716       
12              118.852000      144.700837      119.503816      0.100131        1.210847       
13              118.891000      156.605630      119.457009      0.100132        1.310979       
14              118.813000      168.502495      119.411311      0.100131        1.411110       
15              118.843000      180.402482      119.373656      0.100132        1.511242       
16              118.765000      192.294659      119.335833      0.100132        1.611374       
17              118.812000      204.192136      119.305185      0.100137        1.711511       
18              118.765000      216.086095      119.275324      0.100147        1.811658       
19              118.795000      227.988522      119.250152      0.100193        1.911851       
20              118.747000      239.879016      119.225111      0.100133        2.011984       
21              118.777000      251.772513      119.203867      0.100133        2.112117       
22              134.001000      265.190167      119.873616      0.100131        2.212248       
23              150.252000      280.235351      121.189091      0.100133        2.312381       
24              166.286000      296.885734      123.060832      0.100131        2.412512       
25              182.637000      315.173360      125.434994      0.100131        2.512643       
26              198.718000      335.071192      128.243465      0.100131        2.612774       
27              224.328000      357.542800      131.791296      0.100173        2.712947       
28              230.464000      380.619391      135.303533      0.100131        2.813078       
29              246.497000      405.301629      139.125442      0.100132        2.913210       
30              262.240000      431.560244      143.216483      0.100132        3.013342       
31              278.283000      459.424999      147.560297      0.100131        3.113473       
32              293.850000      488.839384      152.117093      0.100100        3.213573       
33              294.397000      518.317650      156.416400      0.100131        3.313704       
34              293.726000      547.728729      160.443820      0.100131        3.413835       
35              293.450000      577.112464      164.233888      0.100132        3.513967       
36              292.597000      606.410202      167.790240      0.100130        3.614097       
37              292.264000      635.674888      171.145898      0.100131        3.714228       
38              291.897000      664.931141      174.318734      0.100228        3.814456       
39              291.956000      694.164987      177.327771      0.100131        3.914587       
40              291.539000      723.359411      180.176533      0.100139        4.014726       
41              291.527000      752.550301      182.886137      0.100131        4.114857       
42              291.234000      781.711853      185.460042      0.100131        4.214988       
43              291.374000      810.901991      187.918942      0.100181        4.315169       
44              291.300000      840.069860      190.263414      0.100130        4.415299       
45              291.300000      869.238603      192.503974      0.100133        4.515432       
46              291.435000      898.420281      194.650204      0.100131        4.615563       
47              291.497000      927.623617      196.707673      0.100184        4.715747       
48              291.497000      956.811794      198.678537      0.100132        4.815879       
49              291.030000      985.953210      200.559602      0.100132        4.916011       
50              291.242000      1015.115854     202.369800      0.100132        5.016143       
51              291.153000      1044.269586     204.107400      0.100132        5.116275       
52              291.225000      1073.430528     205.779673      0.100132        5.216407       
53              291.125000      1102.581456     207.387072      0.100132        5.316539       
54              291.064000      1131.726568     208.933930      0.100133        5.416672       
55              291.037000      1160.868394     210.424116      0.100131        5.516803       
56              291.279000      1190.034743     211.865500      0.100132        5.616935       
57              291.098000      1219.183259     213.253237      0.100133        5.717068       
58              291.370000      1248.358428     214.597855      0.100131        5.817199       
59              291.638000      1277.560724     215.901514      0.100132        5.917331       
60              291.543000      1306.753508     217.160207      0.100132        6.017463       
61              291.472000      1335.938891     218.376520      0.100131        6.117594       
62              291.714000      1365.148505     219.557556      0.100131        6.217725       
63              291.704000      1394.357702     220.701020      0.100133        6.317858       
64              291.771000      1423.573024     221.809826      0.100131        6.417989       
65              291.677000      1452.792643     222.883618      0.100178        6.518167       
66              291.916000      1482.022775     223.928048      0.100132        6.618299       
67              291.736000      1511.234593     224.938653      0.100131        6.718430       
68              291.857000      1540.458818     225.921363      0.100132        6.818562       
69              291.586000      1569.655616     226.871696      0.100131        6.918693       
70              291.827000      1598.876837     227.798362      0.100132        7.018825       
71              291.796000      1628.094662     228.698515      0.100131        7.118956       
72              291.829000      1657.316084     229.574163      0.100132        7.219088       
73              291.694000      1686.523987     230.424005      0.100132        7.319220       
74              291.790000      1715.741212     231.252196      0.100131        7.419351       
75              291.825000      1744.962233     232.058804      0.100132        7.519483       
76              291.762000      1774.176945     232.843385      0.100132        7.619615       
77              291.792000      1803.404583     233.608257      0.100166        7.719781       
78              291.825000      1832.625604     234.353707      0.100132        7.819913       
79              291.728000      1861.841288     235.079190      0.100147        7.920060       
80              291.858000      1891.065321     235.788066      0.100131        8.020191       
81              291.858000      1920.289646     236.479466      0.100132        8.120323       
82              292.000000      1949.528190     237.155752      0.100132        8.220455       
83              291.728000      1978.739498     237.812488      0.100132        8.320587       
84              292.064000      2007.984451     238.457601      0.100132        8.420719       
85              291.895000      2037.212773     239.085572      0.100133        8.520852       
86              292.034000      2066.467279     239.700824      0.100175        8.621027       
87              291.612000      2095.657640     240.296654      0.100100        8.721127       
88              291.795000      2124.873031     240.881171      0.100123        8.821250       
89              291.730000      2154.082205     241.451844      0.100124        8.921374       
90              291.763000      2183.294976     242.010222      0.100125        9.021499       
91              291.763000      2212.506579     242.556320      0.100121        9.121620       
92              291.633000      2241.704875     243.089143      0.100120        9.221740       
93              292.172000      2270.960642     243.616373      0.100132        9.321872       
94              292.410000      2300.240240     244.134925      0.100132        9.422004       
95              292.718000      2329.550971     244.645815      0.100133        9.522137       
96              293.155000      2358.904875     245.150610      0.100131        9.622268       
97              293.859000      2388.326625     245.652214      0.100122        9.722390       
98              294.066000      2417.770572     246.145725      0.100127        9.822517       
99              294.342000      2447.240976     246.632043      0.100123        9.922640       
100             294.860000      2476.763538     247.113824      0.100124        10.022764      
101             295.106000      2506.312207     247.588531      0.100129        10.122893      
102             295.595000      2535.909543     248.058724      0.100128        10.223021      
103             295.959000      2565.542142     248.523308      0.100124        10.323145      
104             296.006000      2595.179743     248.979422      0.100125        10.423270      
105             296.039000      2624.820944     249.427176      0.100126        10.523396      
106             295.973000      2654.456424     249.865880      0.100129        10.623525      
107             295.989000      2684.093803     250.296546      0.100130        10.723655      
108             296.071000      2713.737912     250.719981      0.100125        10.823780      
109             296.071000      2743.393567     251.135814      0.100164        10.923944      
110             296.041000      2773.034673     251.543661      0.100125        11.024069      
111             295.937000      2802.665069     251.943226      0.100124        11.124193      
112             295.904000      2832.292457     252.335372      0.100125        11.224318      
113             295.906000      2861.920045     252.720601      0.100125        11.324443      
114             295.928000      2891.549836     253.099271      0.100125        11.424568      
115             295.907000      2921.177524     253.471179      0.100125        11.524693      
116             295.928000      2950.807019     253.836858      0.100124        11.624817      
117             296.017000      2980.445722     254.197055      0.100125        11.724942      
118             296.017000      3010.084424     254.551152      0.100125        11.825067      
119             295.987000      3039.720122     254.899051      0.100125        11.925192      
120             295.865000      3069.343309     255.240138      0.100124        12.025316      
121             295.865000      3098.966497     255.575591      0.100124        12.125440      
122             295.976000      3128.600798     255.906459      0.100124        12.225564      
123             296.007000      3158.238499     256.232207      0.100125        12.325689      
124             296.007000      3187.875903     256.552702      0.100124        12.425813      
125             295.873000      3217.499892     256.867003      0.100124        12.525937      
126             295.875000      3247.124376     257.176337      0.100125        12.626062      
127             295.875000      3276.747973     257.480795      0.100122        12.726184      
128             295.842000      3306.374182     257.780301      0.100142        12.826326      
129             295.940000      3336.025595     258.076079      0.100194        12.926520      
130             296.041000      3365.670548     258.367921      0.100138        13.026658      
131             296.051000      3395.314431     258.655367      0.100131        13.126789      
132             296.108000      3424.962245     258.938876      0.100125        13.226914      
133             296.136000      3454.617896     259.218382      0.100142        13.327056      
134             296.229000      3484.278121     259.494369      0.100126        13.427182      
135             296.200000      3513.935146     259.766053      0.100125        13.527307      
136             296.351000      3543.607290     260.034854      0.100125        13.627432      
137             296.402000      3573.284540     260.300106      0.100125        13.727557      
138             296.504000      3602.972003     260.562255      0.100125        13.827682      
139             296.374000      3632.646450     260.819700      0.100125        13.927807      
140             296.354000      3662.317116     261.073313      0.100119        14.027926      
141             296.477000      3692.003654     261.324233      0.100131        14.128057      
142             296.447000      3721.687485     261.571412      0.100132        14.228189      
143             296.414000      3751.368308     261.814908      0.100133        14.328322      
144             296.178000      3781.025204     262.053384      0.100132        14.428454      
145             296.273000      3810.691612     262.289228      0.100132        14.528586      
146             296.243000      3840.355312     262.521641      0.100133        14.628719      
147             296.233000      3870.015049     262.750802      0.100123        14.728842      
148             296.234000      3899.675478     262.976880      0.100125        14.828967      
149             296.198000      3929.334672     263.199702      0.100133        14.929100      
150             296.289000      3958.994683     263.420100      0.100105        15.029205      
151             296.169000      3988.638238     263.636755      0.100090        15.129295      
152             296.225000      4018.286806     263.850926      0.100088        15.229383      
153             296.254000      4047.938869     264.062494      0.100090        15.329473      
154             296.402000      4077.615526     264.272346      0.100123        15.429596      
155             296.402000      4107.295740     264.479516      0.100135        15.529731      
156             296.473000      4136.972391     264.684414      0.100099        15.629830      
157             296.570000      4166.655489     264.887299      0.100088        15.729918      
158             296.402000      4196.322069     265.086558      0.100089        15.830007      
159             296.402000      4225.995762     265.283360      0.100113        15.930120      
160             296.436000      4255.666042     265.477872      0.100090        16.030210      
161             296.566000      4285.349036     265.670775      0.100089        16.130299      
162             296.556000      4315.030733     265.861235      0.100088        16.230387      
163             296.466000      4344.703718     266.048811      0.100089        16.330476      
164             296.504000      4374.401263     266.234462      0.100159        16.430635      
165             296.511000      4404.083496     266.417807      0.100105        16.530740      
166             296.511000      4433.760689     266.598914      0.100088        16.630828      
167             296.439000      4463.431565     266.777430      0.100091        16.730919      
168             296.476000      4493.106145     266.954042      0.100091        16.831010      
169             296.612000      4522.794336     267.129370      0.100091        16.931101      
170             296.664000      4552.487733     267.302942      0.100091        17.031192      
171             296.691000      4582.193326     267.474699      0.100123        17.131315      
172             296.653000      4611.884731     267.644180      0.100088        17.231403      
173             296.671000      4641.578235     267.811810      0.100089        17.331492      
174             296.727000      4671.277344     267.977835      0.100089        17.431581      
175             296.732000      4700.987932     268.142054      0.100126        17.531707      
176             296.732000      4730.687838     268.304350      0.100090        17.631797      
177             296.732000      4760.387447     268.464812      0.100089        17.731886      
178             296.622000      4790.079012     268.622871      0.100099        17.831985      
179             296.592000      4819.764609     268.778983      0.100089        17.932074      
180             296.559000      4849.446606     268.933177      0.100088        18.032162      
181             296.579000      4879.130902     269.085780      0.100089        18.132251      
182             296.609000      4908.818793     269.236876      0.100091        18.232342      
183             296.522000      4938.497680     269.385845      0.100090        18.332432      
184             296.585000      4968.182280     269.533535      0.100088        18.432520      
185             296.609000      4997.871357     269.679770      0.100095        18.532615      
186             296.625000      5027.560257     269.824512      0.100089        18.632704      
187             296.645000      5057.251159     269.967813      0.100089        18.732793      
188             296.645000      5086.941763     270.109590      0.100088        18.832881      
189             296.736000      5116.641773     270.250350      0.100089        18.932970      
190             296.827000      5146.350890     270.390109      0.100089        19.033059      
191             296.827000      5176.060305     270.528406      0.100090        19.133149      
192             296.799000      5205.767214     270.665120      0.100091        19.233240      
193             296.869000      5235.482910     270.800789      0.100097        19.333337      
194             296.869000      5265.201278     270.935072      0.100106        19.433443      
195             296.869000      5294.918459     271.067974      0.100102        19.533545      
196             296.732000      5324.618958     271.198808      0.100092        19.633637      
197             296.773000      5354.322967     271.328521      0.100090        19.733727      
198             296.773000      5384.026680     271.456924      0.100089        19.833816      
199             296.866000      5413.739404     271.584503      0.100088        19.933904      
200             296.836000      5443.449423     271.710658      0.100089        20.033993      
201             296.744000      5473.160026     271.835143      0.100122        20.134115      
202             296.773000      5502.864035     271.958500      0.100090        20.234205      
203             296.803000      5532.571641     272.080792      0.100092        20.334297      
204             296.805000      5562.278557     272.201893      0.100089        20.434386      
205             296.867000      5591.991678     272.322116      0.100089        20.534475      
206             296.933000      5621.711108     272.441491      0.100088        20.634563      
207             296.900000      5651.428126     272.559558      0.100091        20.734654      
