#timestep       power           acc-energy      avg-power       dt              acc-time       
1               120.641000      12.081834       120.641000      0.100147        0.100147       
2               120.641000      25.063168       120.641000      0.107603        0.207750       
3               120.518000      37.133407       120.600991      0.100153        0.307903       
4               120.507000      49.223392       120.577892      0.100326        0.408229       
5               120.382000      61.281696       120.539296      0.100167        0.508396       
6               120.371000      73.338055       120.511597      0.100160        0.608556       
7               120.265000      85.384880       120.476744      0.100169        0.708725       
8               120.235000      97.428219       120.446809      0.100165        0.808890       
9               120.111000      109.460218      120.409804      0.100174        0.909064       
10              120.078000      121.493955      120.376858      0.100216        1.009280       
11              119.777000      133.490340      120.322705      0.100156        1.109436       
12              119.792000      145.488228      120.278762      0.100156        1.209592       
13              134.949000      159.004180      121.400590      0.100156        1.309748       
14              163.593000      175.389000      124.397832      0.100156        1.409904       
15              199.639000      195.384244      129.388312      0.100157        1.510061       
16              231.699000      218.590289      135.752069      0.100156        1.610217       
17              263.473000      244.977900      143.230938      0.100153        1.710370       
18              295.178000      274.541748      151.636457      0.100156        1.810526       
19              327.196000      307.326133      160.842766      0.100198        1.910724       
20              337.307000      341.108778      169.631762      0.100154        2.010878       
21              365.897000      377.755192      178.943291      0.100155        2.111033       
22              394.726000      417.290554      188.717467      0.100159        2.211192       
23              423.739000      459.730557      198.901488      0.100156        2.311348       
24              437.748000      503.573208      208.821307      0.100155        2.411503       
25              437.715000      547.405550      217.947283      0.100139        2.511642       
26              437.258000      591.189943      226.355531      0.100134        2.611776       
27              436.795000      634.928410      234.125829      0.100135        2.711911       
28              436.534000      678.639869      241.333304      0.100133        2.812044       
29              436.162000      722.313642      248.032276      0.100132        2.912176       
30              436.454000      766.015781      254.295474      0.100130        3.012306       
31              436.930000      809.765582      260.170999      0.100130        3.112436       
32              436.971000      853.519926      265.681595      0.100131        3.212567       
33              436.761000      897.253678      270.852763      0.100132        3.312699       
34              436.941000      941.005454      275.725770      0.100132        3.412831       
35              437.001000      984.771978      280.323582      0.100152        3.512983       
36              437.296000      1028.558864     284.673792      0.100131        3.613114       
37              437.339000      1072.350493     288.790587      0.100132        3.713246       
38              437.558000      1116.164051     292.696934      0.100132        3.813378       
39              437.895000      1160.010915     296.411971      0.100131        3.913509       
40              437.814000      1203.850106     299.939657      0.100132        4.013641       
41              437.869000      1247.695243     303.296983      0.100133        4.113774       
42              437.748000      1291.528263     306.491876      0.100133        4.213907       
43              437.645000      1335.370664     309.537402      0.100178        4.314085       
44              437.677000      1379.197888     312.444232      0.100136        4.414221       
45              437.686000      1423.026451     315.222331      0.100137        4.514358       
46              437.716000      1466.858018     317.880509      0.100137        4.614495       
47              437.809000      1510.698460     320.427720      0.100136        4.714631       
48              437.366000      1554.494105     322.859741      0.100135        4.814766       
49              437.098000      1598.262476     325.187181      0.100134        4.914900       
50              436.863000      1642.006879     327.416964      0.100133        5.015033       
51              437.034000      1685.767967     329.562774      0.100132        5.115165       
52              437.004000      1729.526489     331.625631      0.100133        5.215298       
53              437.068000      1773.290545     333.611933      0.100131        5.315429       
54              437.192000      1817.067891     335.527114      0.100133        5.415562       
55              437.004000      1860.826413     337.369346      0.100133        5.515695       
56              437.140000      1904.601612     339.148428      0.100140        5.615835       
57              437.347000      1948.394042     340.868665      0.100132        5.715967       
58              437.501000      1992.201892     342.532321      0.100132        5.816099       
59              437.903000      2036.049557     344.146451      0.100131        5.916230       
60              438.556000      2079.962608     345.717720      0.100131        6.016361       
61              438.977000      2123.917814     347.244436      0.100131        6.116492       
62              438.796000      2167.854897     348.719055      0.100131        6.216623       
63              438.523000      2211.764643     350.142596      0.100131        6.316754       
64              438.573000      2255.679396     351.522490      0.100131        6.416885       
65              438.633000      2299.600157     352.860904      0.100131        6.517016       
66              438.662000      2343.523383     354.159238      0.100130        6.617146       
67              438.538000      2387.434632     355.417029      0.100131        6.717277       
68              438.846000      2431.376720     356.642396      0.100131        6.817408       
69              438.573000      2475.291912     357.828348      0.100132        6.917540       
70              438.200000      2519.169316     358.975124      0.100131        7.017671       
71              437.298000      2562.956402     360.076945      0.100131        7.117802       
72              437.429000      2606.756605     361.150014      0.100131        7.217933       
73              437.460000      2650.560788     362.194163      0.100133        7.318066       
74              437.435000      2694.362029     363.209775      0.100132        7.418198       
75              437.739000      2738.194586     364.202404      0.100134        7.518332       
76              437.704000      2782.031517     365.168650      0.100152        7.618484       
77              437.606000      2825.851632     366.108402      0.100136        7.718620       
78              437.201000      2869.630754     367.018886      0.100135        7.818755       
79              437.807000      2913.470558     367.914008      0.100135        7.918890       
80              437.807000      2957.310799     368.786783      0.100136        8.019026       
81              437.739000      3001.143356     369.637174      0.100134        8.119160       
82              438.201000      3045.022614     370.472481      0.100135        8.219295       
83              438.574000      3088.940098     371.292187      0.100137        8.319432       
84              438.539000      3132.855394     372.092001      0.100140        8.419572       
85              438.348000      3176.752001     372.870776      0.100141        8.519713       
86              438.509000      3220.684025     373.633658      0.100185        8.619898       
87              438.479000      3264.593312     374.378335      0.100140        8.720038       
88              438.444000      3308.497779     375.105684      0.100137        8.820175       
89              438.413000      3352.398703     375.816348      0.100136        8.920311       
90              439.195000      3396.391548     376.520130      0.100167        9.020478       
91              439.000000      3440.354764     377.206156      0.100144        9.120622       
92              439.025000      3484.316533     377.877492      0.100135        9.220757       
93              438.603000      3528.234728     378.529851      0.100132        9.320889       
94              438.353000      3572.127453     379.165680      0.100131        9.421020       
95              438.086000      3615.993880     379.785333      0.100132        9.521152       
96              438.241000      3659.875828     380.393701      0.100132        9.621284       
97              438.529000      3703.786614     380.992503      0.100132        9.721416       
98              438.917000      3747.735812     381.583045      0.100131        9.821547       
99              439.005000      3791.693821     382.162556      0.100131        9.921678       
100             438.803000      3835.631605     382.728468      0.100131        10.021809      
101             439.175000      3879.607076     383.286869      0.100132        10.121941      
102             439.231000      3923.587715     383.834874      0.100131        10.222072      
103             439.172000      3967.563325     384.371685      0.100133        10.322205      
104             439.540000      4011.575784     384.901716      0.100133        10.422338      
105             439.843000      4055.618143     385.424538      0.100132        10.522470      
106             440.422000      4099.718479     385.942962      0.100132        10.622602      
107             440.330000      4143.810043     386.450849      0.100133        10.722735      
108             439.914000      4187.859951     386.945489      0.100133        10.822868      
109             440.087000      4231.926303     387.432637      0.100131        10.922999      
110             439.992000      4275.983141     387.910071      0.100131        11.023130      
111             439.992000      4320.039980     388.378910      0.100131        11.123261      
112             439.992000      4364.097259     388.839387      0.100132        11.223393      
113             440.449000      4408.199858     389.295758      0.100131        11.323524      
114             440.417000      4452.299693     389.743852      0.100132        11.423656      
115             440.082000      4496.365984     390.181248      0.100132        11.523788      
116             439.779000      4540.401055     390.608490      0.100130        11.623918      
117             439.346000      4584.393649     391.024744      0.100132        11.724050      
118             439.235000      4628.374689     391.433004      0.100131        11.824181      
119             439.375000      4672.370186     391.835587      0.100132        11.924313      
120             439.503000      4716.378501     392.232531      0.100132        12.024445      
121             439.569000      4760.393424     392.623464      0.100132        12.124577      
122             439.535000      4804.405382     393.007718      0.100133        12.224710      
123             439.469000      4848.423036     393.385297      0.100161        12.324871      
124             439.653000      4892.447250     393.758172      0.100134        12.425005      
125             439.623000      4936.468899     394.124848      0.100135        12.525140      
126             440.179000      4980.546223     394.490118      0.100135        12.625275      
127             440.656000      5024.671312     394.853393      0.100135        12.725410      
128             440.850000      5068.815386     395.212506      0.100134        12.825544      
129             440.762000      5112.970923     395.565535      0.100180        12.925724      
130             440.492000      5157.079149     395.910899      0.100134        13.025858      
131             440.662000      5201.203957     396.252287      0.100133        13.125991      
132             440.459000      5245.308878     396.586973      0.100134        13.226125      
133             440.489000      5289.418566     396.916868      0.100138        13.326263      
134             440.489000      5333.526491     397.241828      0.100134        13.426397      
135             440.996000      5377.684744     397.565728      0.100133        13.526530      
136             440.609000      5421.820107     397.882136      0.100169        13.626699      
137             439.979000      5465.876524     398.189220      0.100133        13.726832      
138             439.477000      5509.897177     398.488318      0.100166        13.826998      
139             439.506000      5553.905792     398.783223      0.100132        13.927130      
140             439.719000      5597.937494     399.075450      0.100136        14.027266      
141             439.873000      5641.982857     399.364615      0.100132        14.127398      
142             440.083000      5686.048808     399.651184      0.100131        14.227529      
143             439.946000      5730.101921     399.932796      0.100133        14.327662      
144             439.776000      5774.137131     400.209313      0.100131        14.427793      
145             439.961000      5818.191306     400.483297      0.100132        14.527925      
146             440.284000      5862.277824     400.755741      0.100132        14.628057      
147             440.115000      5906.346979     401.023329      0.100131        14.728188      
148             440.858000      5950.490972     401.292323      0.100132        14.828320      
149             441.094000      5994.658596     401.559291      0.100132        14.928452      
150             441.466000      6038.863470     401.825180      0.100132        15.028584      
151             441.225000      6083.043770     402.085952      0.100131        15.128715      
152             441.249000      6127.227356     402.343457      0.100133        15.228848      
153             441.159000      6171.402372     402.597013      0.100134        15.328982      
154             441.069000      6215.568375     402.846694      0.100134        15.429116      
155             441.129000      6259.741269     403.093547      0.100136        15.529252      
156             440.956000      6303.915800     403.336231      0.100179        15.629431      
157             441.498000      6348.126526     403.579178      0.100138        15.729569      
158             441.124000      6392.313917     403.816760      0.100170        15.829739      
159             440.246000      6436.397951     404.045754      0.100135        15.929874      
160             440.170000      6480.474814     404.271414      0.100136        16.030010      
161             440.072000      6524.542304     404.493667      0.100137        16.130147      
162             440.231000      6568.626156     404.714160      0.100138        16.230285      
163             440.679000      6612.755751     404.934700      0.100140        16.330425      
164             440.713000      6656.894480     405.152788      0.100153        16.430578      
165             440.873000      6701.042620     405.369170      0.100138        16.530716      
166             440.719000      6745.175780     405.582021      0.100139        16.630855      
167             440.623000      6789.299767     405.791752      0.100140        16.730995      
168             441.117000      6833.471900     406.001920      0.100137        16.831132      
169             441.351000      6877.666583     406.210981      0.100135        16.931267      
170             441.299000      6921.855617     406.417277      0.100134        17.031401      
171             441.931000      6966.125613     406.624937      0.100174        17.131575      
172             442.164000      7010.400821     406.831454      0.100133        17.231708      
173             442.010000      7054.660166     407.034693      0.100132        17.331840      
174             441.898000      7098.907855     407.234951      0.100131        17.431971      
175             442.134000      7143.179616     407.434272      0.100132        17.532103      
176             441.968000      7187.434314     407.630384      0.100131        17.632234      
177             441.870000      7231.679199     407.823728      0.100131        17.732365      
178             442.019000      7275.939004     408.015737      0.100131        17.832496      
179             442.238000      7320.221621     408.206829      0.100133        17.932629      
180             442.587000      7364.538300     408.397733      0.100131        18.032760      
181             441.876000      7408.784228     408.582604      0.100132        18.132892      
182             441.746000      7453.016696     408.764729      0.100131        18.233023      
183             441.284000      7497.203346     408.942342      0.100132        18.333155      
184             441.374000      7541.398566     409.118513      0.100131        18.433286      
185             441.127000      7585.569054     409.291447      0.100131        18.533417      
186             441.668000      7629.793712     409.465428      0.100131        18.633548      
187             441.742000      7674.025780     409.637946      0.100131        18.733679      
188             441.742000      7718.255198     409.808618      0.100125        18.833804      
189             441.494000      7762.462434     409.976185      0.100131        18.933935      
190             441.323000      7806.650340     410.141080      0.100126        19.034061      
191             441.597000      7850.877163     410.305726      0.100152        19.134213      
192             441.338000      7895.068778     410.467276      0.100131        19.234344      
193             442.001000      7939.327223     410.630587      0.100132        19.334476      
194             442.412000      7983.639209     410.794378      0.100160        19.434636      
195             442.653000      8027.962939     410.957680      0.100132        19.534768      
196             442.452000      8072.266985     411.118293      0.100133        19.634901      
197             442.422000      8116.567142     411.277121      0.100131        19.735032      
198             442.298000      8160.855325     411.433721      0.100132        19.835164      
199             442.054000      8205.119077     411.587522      0.100132        19.935296      
200             442.208000      8249.397806     411.740554      0.100131        20.035427      
201             442.239000      8293.688042     411.892246      0.100150        20.135577      
202             442.269000      8337.974648     412.042564      0.100135        20.235712      
203             442.215000      8382.264691     412.191164      0.100155        20.335867      
204             441.841000      8426.508440     412.336446      0.100135        20.436002      
205             441.468000      8470.714838     412.478493      0.100135        20.536137      
206             441.368000      8514.909899     412.618671      0.100132        20.636269      
207             441.379000      8559.106502     412.757551      0.100133        20.736402      
