#timestep       power           acc-energy      avg-power       dt              acc-time       
1               121.434000      12.158822       121.434000      0.100127        0.100127       
2               121.434000      25.742065       121.434000      0.111857        0.211984       
3               121.303000      37.883404       121.391985      0.100091        0.312075       
4               121.204000      50.015318       121.346333      0.100095        0.412170       
5               121.161000      62.142565       121.310120      0.100092        0.512262       
6               121.014000      74.257881       121.261709      0.100115        0.612377       
7               120.958000      86.366866       121.219036      0.100109        0.712486       
8               120.857000      98.466585       121.174431      0.100116        0.812602       
9               120.828000      110.562918      121.136433      0.100112        0.912714       
10              120.738000      122.650965      121.097048      0.100118        1.012832       
11              120.476000      134.711336      121.041186      0.100106        1.112938       
12              120.477000      146.770360      120.994632      0.100094        1.213032       
13              120.511000      158.835440      120.957759      0.100116        1.313148       
14              120.522000      170.901259      120.926891      0.100113        1.413261       
15              120.488000      182.964276      120.897856      0.100118        1.513379       
16              120.458000      195.023086      120.870565      0.100108        1.613487       
17              120.489000      207.086203      120.848272      0.100118        1.713605       
18              120.489000      219.148719      120.828441      0.100113        1.813718       
19              120.423000      231.204867      120.807232      0.100115        1.913833       
20              120.435000      243.261254      120.788729      0.100107        2.013940       
21              120.462000      255.318536      120.773260      0.100092        2.114032       
22              166.788000      272.012514      122.853389      0.100091        2.214123       
23              216.686000      293.700399      126.911622      0.100089        2.314212       
24              267.263000      320.450218      132.730074      0.100088        2.414300       
25              317.703000      352.250382      140.093550      0.100094        2.514394       
26              368.607000      389.144257      148.841705      0.100090        2.614484       
27              392.202000      428.399363      157.814641      0.100089        2.714573       
28              470.325000      475.473252      168.927360      0.100088        2.814661       
29              521.123000      527.631410      181.021217      0.100088        2.914749       
30              531.094000      580.802948      192.646356      0.100117        3.014866       
31              623.119000      643.172798      206.478736      0.100093        3.114959       
32              623.879000      705.637436      219.477275      0.100123        3.215082       
33              628.915000      768.608808      231.843244      0.100127        3.315209       
34              628.849000      831.581118      243.483568      0.100139        3.415348       
35              629.557000      894.620549      254.480269      0.100133        3.515481       
36              629.856000      957.689290      264.876050      0.100132        3.615613       
37              630.233000      1020.795150     274.721604      0.100131        3.715744       
38              630.097000      1083.888653     284.047063      0.100133        3.815877       
39              630.406000      1147.011836     292.903344      0.100131        3.916008       
40              630.808000      1210.175903     301.328117      0.100132        4.016140       
41              630.962000      1273.355390     309.346756      0.100132        4.116272       
42              630.910000      1336.529670     316.983304      0.100132        4.216404       
43              631.283000      1399.777914     324.278335      0.100190        4.316594       
44              631.452000      1463.006466     331.242297      0.100132        4.416726       
45              632.216000      1526.311518     337.914435      0.100132        4.516858       
46              632.251000      1589.620075     344.297925      0.100132        4.616990       
47              631.943000      1652.897160     350.403808      0.100131        4.717121       
48              632.190000      1716.199609     356.261049      0.100132        4.817253       
49              632.745000      1779.557631     361.891052      0.100132        4.917385       
50              632.670000      1842.908144     367.294848      0.100132        5.017517       
51              632.715000      1906.263162     372.488063      0.100132        5.117649       
52              633.110000      1969.657733     377.489537      0.100132        5.217781       
53              633.210000      2033.064849     382.304735      0.100136        5.317917       
54              633.303000      2096.479378     386.943527      0.100133        5.418050       
55              633.388000      2159.903052     391.415555      0.100134        5.518184       
56              633.687000      2223.357300     395.733546      0.100135        5.618319       
57              634.193000      2286.860314     399.909051      0.100132        5.718451       
58              634.193000      2350.365864     403.941002      0.100136        5.818587       
59              634.130000      2413.863203     407.835343      0.100133        5.918720       
60              633.764000      2477.325795     411.594129      0.100136        6.018856       
61              634.096000      2540.819730     415.235218      0.100133        6.118989       
62              634.259000      2604.321741     418.761231      0.100120        6.219109       
63              634.433000      2667.849421     422.178708      0.100133        6.319242       
64              626.914000      2730.603512     425.371247      0.100100        6.419342       
65              627.760000      2793.463632     428.479778      0.100134        6.519476       
66              627.944000      2856.337153     431.496811      0.100126        6.619602       
67              627.422000      2919.168447     434.416616      0.100142        6.719744       
68              627.624000      2981.994237     437.252494      0.100101        6.819845       
69              627.929000      3044.861860     440.011228      0.100119        6.919964       
70              628.396000      3107.786294     442.698357      0.100135        7.020099       
71              629.172000      3170.789690     445.320870      0.100137        7.120236       
72              628.598000      3233.729322     447.862430      0.100127        7.220363       
73              629.355000      3296.756708     450.345284      0.100146        7.320509       
74              629.479000      3359.788329     452.762487      0.100133        7.420642       
75              636.563000      3423.529928     455.209666      0.100134        7.520776       
76              636.626000      3487.278473     457.593386      0.100135        7.620911       
77              636.671000      3551.029613     459.915793      0.100132        7.721043       
78              636.541000      3614.770919     462.177180      0.100137        7.821180       
79              636.663000      3678.521259     464.382827      0.100132        7.921312       
80              636.786000      3742.286462     466.535027      0.100136        8.021448       
81              637.082000      3806.079394     468.637744      0.100133        8.121581       
82              637.156000      3869.859346     470.689495      0.100101        8.221682       
83              637.386000      3933.683356     472.695305      0.100134        8.321816       
84              637.418000      3997.509295     474.653761      0.100132        8.421948       
85              637.526000      4061.349236     476.567558      0.100137        8.522085       
86              637.385000      4125.206927     478.436186      0.100187        8.622272       
87              637.585000      4189.052139     480.263264      0.100136        8.722408       
88              637.739000      4252.910220     482.050546      0.100132        8.822540       
89              638.075000      4316.805775     483.801587      0.100138        8.922678       
90              638.261000      4380.716764     485.515740      0.100133        9.022811       
91              638.326000      4444.634899     487.192995      0.100134        9.122945       
92              638.293000      4508.549731     488.833472      0.100134        9.223079       
93              638.441000      4572.478743     490.440284      0.100133        9.323212       
94              638.441000      4636.409671     492.012995      0.100136        9.423348       
95              638.688000      4700.364055     493.555199      0.100134        9.523482       
96              638.871000      4764.354014     495.067618      0.100161        9.623643       
97              639.201000      4828.359127     496.551867      0.100133        9.723776       
98              639.118000      4892.334200     498.004525      0.100099        9.823875       
99              639.337000      4956.353571     499.430580      0.100134        9.924009       
100             639.364000      5020.374367     500.828387      0.100132        10.024141      
101             639.487000      5084.410677     502.199829      0.100137        10.124278      
102             639.700000      5148.466397     503.546453      0.100134        10.224412      
103             639.947000      5212.551329     504.869444      0.100141        10.324553      
104             639.858000      5276.622230     506.166059      0.100133        10.424686      
105             640.014000      5340.712592     507.439562      0.100139        10.524825      
106             639.946000      5404.792305     508.688345      0.100133        10.624958      
107             640.117000      5468.869937     509.915043      0.100103        10.725061      
108             640.416000      5532.998634     511.122212      0.100136        10.825197      
109             640.464000      5597.130856     512.307669      0.100134        10.925331      
110             640.410000      5661.260232     513.471149      0.100138        11.025469      
111             640.514000      5725.398102     514.614586      0.100135        11.125604      
112             640.350000      5789.516988     515.736118      0.100131        11.225735      
113             640.854000      5853.688262     516.842307      0.100134        11.325869      
114             640.985000      5917.851502     517.929900      0.100101        11.425970      
115             641.157000      5982.053117     519.000446      0.100134        11.526104      
116             641.157000      6046.254732     520.052551      0.100134        11.626238      
117             641.261000      6110.468684     521.087607      0.100137        11.726375      
118             641.297000      6174.709329     522.105802      0.100173        11.826548      
119             641.264000      6238.924223     523.106270      0.100138        11.926686      
120             641.391000      6303.148628     524.091086      0.100133        12.026819      
121             641.515000      6367.388657     525.060710      0.100138        12.126957      
122             641.761000      6431.650753     526.016430      0.100134        12.227091      
123             641.855000      6495.902364     526.957097      0.100103        12.327194      
124             641.811000      6560.170751     527.882558      0.100136        12.427330      
125             641.577000      6624.422763     528.791453      0.100147        12.527477      
126             641.810000      6688.680780     529.687539      0.100120        12.627597      
127             641.746000      6752.942015     530.569155      0.100135        12.727732      
128             641.979000      6817.217595     531.438706      0.100121        12.827853      
129             642.385000      6881.572367     532.298443      0.100181        12.928034      
130             642.550000      6945.914111     533.145840      0.100135        13.028169      
131             642.619000      7010.262764     533.980837      0.100135        13.128304      
132             642.679000      7074.632208     534.803835      0.100158        13.228462      
133             642.645000      7139.010456     535.614361      0.100177        13.328639      
134             592.449000      7198.334152     536.038154      0.100133        13.428772      
135             541.488000      7252.558760     536.078493      0.100140        13.528912      
136             504.358000      7303.063153     535.845435      0.100136        13.629048      
137             457.375000      7348.857367     535.273166      0.100124        13.729172      
138             410.503000      7389.969243     534.369598      0.100150        13.829322      
139             363.364000      7426.348519     533.140494      0.100118        13.929440      
140             316.283000      7458.020783     531.592629      0.100139        14.029579      
141             231.670000      7481.221838     529.466873      0.100147        14.129726      
142             179.838000      7499.230636     527.006450      0.100139        14.229865      
143             174.834000      7516.737638     524.545544      0.100135        14.330000      
144             126.477000      7529.406966     521.782241      0.100171        14.430171      
145             126.295000      7542.053768     519.056703      0.100137        14.530308      
146             125.478000      7554.618633     516.362910      0.100136        14.630444      
147             124.905000      7567.130617     513.700895      0.100172        14.730616      
148             124.893000      7579.641274     511.074785      0.100171        14.830787      
149             124.729000      7592.136874     508.482529      0.100182        14.930969      
150             124.663000      7604.620129     505.925554      0.100136        15.031105      
151             124.564000      7617.093968     503.401668      0.100140        15.131245      
152             124.524000      7629.563178     500.910829      0.100135        15.231380      
153             124.422000      7642.021926     498.451909      0.100133        15.331513      
