#timestep       power           acc-energy      avg-power       dt              acc-time       
1               121.560000      12.174234       121.560000      0.100150        0.100150       
2               121.391000      25.574465       121.471391      0.110389        0.210539       
3               121.361000      37.722337       121.435819      0.100097        0.310636       
4               121.242000      49.860965       121.388577      0.100119        0.410755       
5               121.142000      61.991398       121.340248      0.100134        0.510889       
6               120.928000      74.100523       121.272689      0.100135        0.611024       
7               120.895000      86.206586       121.219507      0.100137        0.711161       
8               120.726000      98.295242       121.158597      0.100133        0.811294       
9               120.673000      110.378954      121.105246      0.100136        0.911430       
10              120.430000      122.437971      121.038404      0.100133        1.011563       
11              120.389000      134.493003      120.979910      0.100134        1.111697       
12              119.742000      146.483249      120.877621      0.100134        1.211831       
13              119.709000      158.470190      120.788428      0.100134        1.311965       
14              119.719000      170.458132      120.712593      0.100134        1.412099       
15              119.775000      182.451562      120.650510      0.100133        1.512232       
16              119.775000      194.445232      120.596137      0.100135        1.612367       
17              119.768000      206.449459      120.547671      0.100229        1.712596       
18              119.724000      218.437902      120.502172      0.100134        1.812730       
19              119.722000      230.426025      120.461332      0.100133        1.912863       
20              119.651000      242.406440      120.421025      0.100128        2.012991       
21              138.893000      256.314074      121.296334      0.100132        2.113123       
22              167.775000      273.113552      123.399100      0.100131        2.213254       
23              187.517000      291.889817      126.174336      0.100131        2.313385       
24              221.251000      314.044122      130.118877      0.100132        2.413517       
25              236.884000      337.763554      134.371859      0.100131        2.513648       
26              261.812000      363.979051      139.253950      0.100131        2.613779       
27              303.476000      394.366407      145.313001      0.100131        2.713910       
28              330.902000      427.499955      151.916747      0.100131        2.814041       
29              358.319000      463.379153      159.008800      0.100132        2.914173       
30              385.852000      502.014900      166.544217      0.100131        3.014304       
31              392.170000      541.283666      173.798295      0.100132        3.114436       
32              392.358000      580.572827      180.606571      0.100136        3.214572       
33              393.423000      619.967059      187.035421      0.100132        3.314704       
34              393.497000      659.368307      193.089361      0.100131        3.414835       
35              394.028000      698.822724      198.813509      0.100131        3.514966       
36              394.028000      738.277536      204.220615      0.100132        3.615098       
37              394.165000      777.759862      209.341692      0.100167        3.715265       
38              394.229000      817.234406      214.193862      0.100131        3.815396       
39              394.324000      856.718856      218.800340      0.100132        3.915528       
40              394.351000      896.205222      223.177676      0.100130        4.015658       
41              394.458000      935.702696      227.344671      0.100131        4.115789       
42              394.503000      975.205070      231.314835      0.100132        4.215921       
43              394.598000      1014.737476     235.104910      0.100184        4.316105       
44              394.841000      1054.273695     238.726702      0.100132        4.416237       
45              394.966000      1093.822431     242.190669      0.100132        4.516369       
46              394.995000      1133.374070     245.504998      0.100132        4.616501       
47              395.037000      1172.929915     248.679496      0.100132        4.716633       
48              395.030000      1212.485059     251.721863      0.100132        4.816765       
49              395.038000      1252.054040     254.641421      0.100165        4.916930       
50              395.217000      1291.627909     257.447069      0.100132        5.017062       
51              395.099000      1331.190357     260.140635      0.100133        5.117195       
52              395.113000      1370.764480     262.731737      0.100159        5.217354       
53              395.145000      1410.330744     265.225148      0.100131        5.317485       
54              395.080000      1449.891290     267.625235      0.100133        5.417618       
55              395.099000      1489.452553     269.938488      0.100130        5.517748       
56              395.113000      1529.016403     272.169596      0.100133        5.617881       
57              395.158000      1568.584364     274.323329      0.100132        5.718013       
58              395.243000      1608.159255     276.404311      0.100128        5.818141       
59              395.243000      1647.723869     278.414365      0.100102        5.918243       
60              395.243000      1687.299156     280.358070      0.100129        6.018372       
61              395.306000      1726.881936     282.239243      0.100132        6.118504       
62              395.510000      1766.485935     284.063156      0.100134        6.218638       
63              395.510000      1806.088746     285.829209      0.100131        6.318769       
64              395.548000      1845.695759     287.540774      0.100132        6.418901       
65              395.640000      1885.311983     289.201172      0.100132        6.519033       
66              395.744000      1924.939413     290.812940      0.100134        6.619167       
67              395.744000      1964.565655     292.376623      0.100131        6.719298       
68              395.761000      2004.194787     293.894680      0.100134        6.819432       
69              395.761000      2043.822732     295.368758      0.100131        6.919563       
70              395.885000      2083.463885     296.802580      0.100133        7.019696       
71              395.913000      2123.107445     298.196452      0.100132        7.119828       
72              395.815000      2162.741193     299.550301      0.100132        7.219960       
73              395.861000      2202.379546     300.867741      0.100132        7.320092       
74              395.884000      2242.019807     302.149923      0.100131        7.420223       
75              395.917000      2281.664164     303.398425      0.100133        7.520356       
76              395.845000      2321.300916     304.613158      0.100132        7.620488       
77              395.917000      2360.944877     305.797316      0.100132        7.720620       
78              395.956000      2400.592743     306.951652      0.100132        7.820752       
79              395.953000      2440.240309     308.076764      0.100132        7.920884       
80              395.988000      2479.891379     309.174222      0.100132        8.021016       
81              395.947000      2519.543887     310.244259      0.100146        8.121162       
82              395.981000      2559.223956     311.289270      0.100207        8.221369       
83              396.084000      2598.884639     312.309599      0.100132        8.321501       
84              396.098000      2638.547516     313.305850      0.100134        8.421635       
85              396.188000      2678.218613     314.279728      0.100132        8.521767       
86              396.259000      2717.916235     315.232269      0.100181        8.621948       
87              396.294000      2757.597550     316.162872      0.100131        8.722079       
88              396.324000      2797.288210     317.072835      0.100147        8.822226       
89              396.428000      2836.988492     317.963520      0.100145        8.922371       
90              396.353000      2876.671750     318.833394      0.100121        9.022492       
91              396.383000      2916.359598     319.684538      0.100125        9.122617       
92              396.469000      2956.058832     320.518192      0.100132        9.222749       
93              396.515000      2995.762276     321.334424      0.100131        9.322880       
94              396.607000      3035.475328     322.134295      0.100132        9.423012       
95              396.611000      3075.197506     322.917558      0.100154        9.523166       
96              396.641000      3114.913962     323.684662      0.100132        9.623298       
97              396.641000      3154.630816     324.435975      0.100133        9.723431       
98              396.670000      3194.350176     325.172259      0.100132        9.823563       
99              396.673000      3234.070234     325.893723      0.100133        9.923696       
100             396.662000      3273.788793     326.600655      0.100132        10.023828      
101             396.757000      3313.517262     327.294550      0.100133        10.123961      
102             396.786000      3353.249031     327.975144      0.100134        10.224095      
103             396.846000      3392.986015     328.643105      0.100132        10.324227      
104             396.833000      3432.722490     329.298121      0.100134        10.424361      
105             396.898000      3472.465078     329.941285      0.100133        10.524494      
106             396.866000      3512.212398     330.572150      0.100153        10.624647      
107             396.898000      3551.954986     331.191408      0.100133        10.724780      
108             396.898000      3591.698764     331.799227      0.100136        10.824916      
109             396.897000      3631.440854     332.395872      0.100132        10.925048      
110             396.931000      3671.187143     332.981999      0.100134        11.025182      
111             396.935000      3710.933038     333.557600      0.100132        11.125314      
112             397.024000      3750.688640     334.123737      0.100134        11.225448      
113             397.054000      3790.446848     334.680124      0.100133        11.325581      
114             397.083000      3830.208357     335.227017      0.100134        11.425715      
115             397.083000      3869.969469     335.764403      0.100133        11.525848      
116             397.083000      3909.730184     336.292526      0.100132        11.625980      
117             397.173000      3949.500308     336.812404      0.100133        11.726113      
118             397.114000      3989.264921     337.322983      0.100134        11.826247      
119             397.173000      4029.030676     337.825425      0.100122        11.926369      
120             397.210000      4068.802122     338.319833      0.100127        12.026496      
121             397.266000      4108.581558     338.806568      0.100133        12.126629      
122             397.266000      4148.360597     339.285326      0.100132        12.226761      
123             397.266000      4188.140034     339.756311      0.100133        12.326894      
124             397.269000      4227.947977     340.220056      0.100204        12.427098      
125             397.262000      4267.732972     340.676073      0.100148        12.527246      
126             397.233000      4307.509103     341.124560      0.100133        12.627379      
127             397.233000      4347.285235     341.565990      0.100133        12.727512      
128             397.329000      4387.070980     342.001278      0.100133        12.827645      
129             397.329000      4426.870632     342.429971      0.100168        12.927813      
130             397.327000      4466.656176     342.851911      0.100133        13.027946      
131             397.329000      4506.433180     343.267338      0.100111        13.128057      
132             397.357000      4546.222125     343.676783      0.100134        13.228191      
133             397.357000      4586.010674     344.080071      0.100133        13.328324      
134             397.330000      4625.792943     344.477109      0.100124        13.428448      
135             397.371000      4665.579317     344.868573      0.100124        13.528572      
136             397.469000      4705.365566     345.254909      0.100099        13.628671      
137             397.541000      4745.164986     345.636193      0.100114        13.728785      
138             397.469000      4784.961172     346.011473      0.100124        13.828909      
139             397.503000      4824.761160     346.381605      0.100125        13.929034      
140             397.536000      4864.563657     346.746683      0.100123        14.029157      
141             397.503000      4904.352912     347.106264      0.100098        14.129255      
142             397.503000      4944.134217     347.460715      0.100078        14.229333      
143             397.478000      4983.912226     347.810034      0.100076        14.329409      
144             397.478000      5023.690234     348.154507      0.100076        14.429485      
145             397.538000      5063.473849     348.494645      0.100075        14.529560      
146             397.538000      5103.257067     348.830126      0.100074        14.629634      
147             397.490000      5143.036674     349.160732      0.100077        14.729711      
148             397.530000      5182.819886     349.487143      0.100076        14.829787      
149             397.595000      5222.609603     349.809613      0.100076        14.929863      
150             397.550000      5262.396010     350.127499      0.100079        15.029942      
151             397.592000      5302.186620     350.441458      0.100079        15.130021      
152             397.525000      5341.969729     350.750844      0.100077        15.230098      
153             397.585000      5381.773156     351.056692      0.100113        15.330211      
154             397.552000      5421.585206     351.358446      0.100143        15.430354      
155             397.573000      5461.394986     351.656412      0.100132        15.530486      
156             397.611000      5501.208968     351.950807      0.100133        15.630619      
157             397.608000      5541.023047     352.241437      0.100134        15.730753      
158             397.617000      5580.837233     352.528443      0.100132        15.830885      
159             397.645000      5620.654620     352.812019      0.100133        15.931018      
160             397.637000      5660.479953     353.092063      0.100155        16.031173      
161             397.679000      5700.302733     353.368845      0.100138        16.131311      
162             397.815000      5740.147486     353.643107      0.100159        16.231470      
163             397.960000      5779.996414     353.914825      0.100133        16.331603      
164             397.968000      5819.846144     354.183279      0.100133        16.431736      
165             397.964000      5859.695075     354.448455      0.100132        16.531868      
166             398.023000      5899.550312     354.710796      0.100133        16.632001      
167             398.083000      5939.427481     354.970459      0.100173        16.732174      
168             398.075000      5979.287925     355.226882      0.100133        16.832307      
169             398.075000      6019.147971     355.480269      0.100132        16.932439      
170             398.045000      6059.015362     355.730565      0.100158        17.032597      
171             398.037000      6098.891903     355.977950      0.100183        17.132780      
172             398.067000      6138.751147     356.222509      0.100132        17.232912      
173             398.097000      6178.613794     356.464418      0.100133        17.333045      
174             398.097000      6218.476441     356.703548      0.100133        17.433178      
175             398.066000      6258.335984     356.939769      0.100133        17.533311      
176             398.029000      6298.191822     357.173098      0.100133        17.633444      
177             397.965000      6338.040853     357.403428      0.100132        17.733576      
178             397.896000      6377.910032     357.630938      0.100200        17.833776      
179             397.904000      6417.753354     357.855800      0.100133        17.933909      
180             397.936000      6457.596298     358.078323      0.100124        18.034033      
181             398.003000      6497.444756     358.298753      0.100121        18.134154      
182             398.043000      6537.301996     358.517007      0.100133        18.234287      
183             398.043000      6577.159634     358.732879      0.100134        18.334421      
184             398.068000      6617.018979     358.946538      0.100132        18.434553      
185             397.795000      6656.850987     359.156413      0.100132        18.534685      
186             397.869000      6696.690804     359.364433      0.100133        18.634818      
187             398.005000      6736.543841     359.570954      0.100132        18.734950      
188             398.014000      6776.398177     359.775329      0.100133        18.835083      
189             398.035000      6816.254615     359.977653      0.100133        18.935216      
190             398.079000      6856.115858     360.178082      0.100134        19.035350      
191             398.154000      6895.984610     360.376806      0.100134        19.135484      
192             398.169000      6935.854467     360.573537      0.100133        19.235617      
193             398.155000      6975.722523     360.768157      0.100132        19.335749      
194             398.145000      7015.589977     360.960721      0.100133        19.435882      
195             398.393000      7055.482263     361.152582      0.100133        19.536015      
196             398.491000      7095.384362     361.342987      0.100133        19.636148      
197             398.448000      7135.282554     361.531243      0.100134        19.736282      
198             398.425000      7175.178045     361.717480      0.100133        19.836415      
199             398.443000      7215.083705     361.901975      0.100154        19.936569      
200             398.476000      7254.984302     362.084753      0.100133        20.036702      
201             398.463000      7294.883598     362.265649      0.100133        20.136835      
202             398.394000      7334.775586     362.444411      0.100132        20.236967      
203             398.459000      7374.674481     362.621735      0.100133        20.337100      
204             398.478000      7414.586834     362.797464      0.100162        20.437262      
205             398.515000      7454.491337     362.971610      0.100133        20.537395      
206             398.515000      7494.395839     363.144066      0.100133        20.637528      
207             398.455000      7534.294334     363.314567      0.100133        20.737661      
