#timestep       power           acc-energy      avg-power       dt              acc-time       
1               123.411000      12.357143       123.411000      0.100130        0.100130       
2               123.411000      25.457715       123.411000      0.106154        0.206284       
3               123.306000      37.803851       123.376689      0.100126        0.306410       
4               123.137000      50.133682       123.317654      0.100131        0.406541       
5               123.071000      62.458874       123.268902      0.100147        0.506688       
6               123.006000      74.775464       123.225521      0.100130        0.606818       
7               122.864000      87.078205       123.174315      0.100133        0.706951       
8               122.739000      99.368184       123.120308      0.100131        0.807082       
9               122.464000      111.630504      123.047870      0.100130        0.907212       
10              122.460000      123.892424      122.989436      0.100130        1.007342       
11              122.144000      136.122947      122.912996      0.100132        1.107474       
12              122.128000      148.354677      122.847892      0.100155        1.207629       
13              122.069000      160.577568      122.788255      0.100131        1.307760       
14              122.066000      172.800037      122.736888      0.100130        1.407890       
15              122.069000      185.022928      122.692541      0.100131        1.508021       
16              121.968000      197.235584      122.647428      0.100130        1.608151       
17              121.989000      209.450708      122.608833      0.100133        1.708284       
18              121.998000      221.666368      122.575012      0.100130        1.808414       
19              121.987000      233.881048      122.544162      0.100131        1.908545       
20              121.911000      246.088119      122.512600      0.100131        2.008676       
21              121.927000      258.296669      122.484794      0.100130        2.108806       
22              139.362000      272.251125      123.249837      0.100131        2.208937       
23              158.031000      288.074770      124.758082      0.100130        2.309067       
24              176.323000      305.730168      126.901221      0.100131        2.409198       
25              201.913000      325.947918      129.894453      0.100131        2.509329       
26              221.962000      348.172752      133.427230      0.100129        2.609458       
27              231.107000      371.317886      137.037543      0.100149        2.709607       
28              249.316000      396.285139      141.039288      0.100143        2.809750       
29              267.423000      423.062471      145.388238      0.100131        2.909881       
30              285.666000      451.666208      150.054670      0.100130        3.010011       
31              303.864000      482.092414      155.006560      0.100131        3.110142       
32              322.958000      514.430521      160.245101      0.100131        3.210273       
33              322.925000      546.765002      165.165692      0.100130        3.310403       
34              322.482000      579.056092      169.784483      0.100133        3.410536       
35              322.463000      611.344634      174.139169      0.100131        3.510667       
36              322.403000      643.626524      178.250592      0.100129        3.610796       
37              322.467000      675.916112      182.142022      0.100133        3.710929       
38              322.388000      708.201659      185.827318      0.100145        3.811074       
39              322.407000      740.484594      189.323902      0.100131        3.911205       
40              322.453000      772.769556      192.646813      0.100123        4.011328       
41              322.557000      805.067188      195.810632      0.100130        4.111458       
42              322.562000      837.365321      198.824130      0.100130        4.211588       
43              322.566000      869.678048      201.698992      0.100174        4.311762       
44              322.595000      901.979485      204.442784      0.100130        4.411892       
45              322.557000      934.277117      207.063954      0.100130        4.512022       
46              322.501000      966.569465      209.570122      0.100131        4.612153       
47              322.590000      998.869434      211.971579      0.100127        4.712280       
48              322.557000      1031.169969     214.272691      0.100139        4.812419       
49              322.561000      1063.468002     216.479877      0.100130        4.912549       
50              322.591000      1095.769362     218.599504      0.100131        5.012680       
51              322.621000      1128.073403     220.636676      0.100130        5.112810       
52              322.685000      1160.384497     222.596855      0.100132        5.212942       
53              322.531000      1192.679848     224.480230      0.100131        5.313073       
54              322.596000      1224.992354     226.295718      0.100164        5.413237       
55              322.531000      1257.288996     228.043563      0.100135        5.513372       
56              322.629000      1289.594160     229.730733      0.100131        5.613503       
57              322.626000      1321.904509     231.358987      0.100148        5.713651       
58              322.662000      1354.212978     232.931503      0.100131        5.813782       
59              322.691000      1386.524028     234.451244      0.100130        5.913912       
60              322.755000      1418.841808     235.921461      0.100131        6.014043       
61              322.785000      1451.162270     237.343999      0.100130        6.114173       
62              322.662000      1483.471062     238.718740      0.100132        6.214305       
63              322.691000      1515.782434     240.050328      0.100131        6.314436       
64              322.810000      1548.107014     241.342252      0.100135        6.414571       
65              322.830000      1580.432627     242.594732      0.100132        6.514703       
66              322.844000      1612.758997     243.809480      0.100130        6.614833       
67              322.904000      1645.092343     244.988931      0.100133        6.714966       
68              322.969000      1677.431552     246.134655      0.100131        6.815097       
69              322.999000      1709.773765     247.247635      0.100131        6.915228       
70              322.999000      1742.113394     248.328757      0.100123        7.015351       
71              322.967000      1774.465644     249.379511      0.100172        7.115523       
72              323.071000      1806.815067     250.402121      0.100131        7.215654       
73              323.033000      1839.156484     251.396091      0.100118        7.315772       
74              323.104000      1871.509211     252.364306      0.100131        7.415903       
75              323.153000      1903.866521     253.307366      0.100130        7.516033       
76              323.203000      1936.229161     254.226296      0.100131        7.616164       
77              323.170000      1968.589465     255.120975      0.100134        7.716298       
78              323.213000      2000.953106     255.993256      0.100131        7.816429       
79              323.236000      2033.318727     256.843753      0.100130        7.916559       
80              323.059000      2065.666948     257.670803      0.100131        8.016690       
81              323.059000      2098.015491     258.477455      0.100132        8.116822       
82              323.094000      2130.366894     259.264858      0.100130        8.216952       
83              323.124000      2162.721946     260.033678      0.100132        8.317084       
84              323.210000      2195.085287     260.785222      0.100131        8.417215       
85              323.176000      2227.445546     261.518704      0.100132        8.517347       
86              323.210000      2259.824077     262.235860      0.100178        8.617525       
87              323.279000      2292.192710     262.936967      0.100126        8.717651       
88              323.243000      2324.559678     263.621783      0.100132        8.817783       
89              323.138000      2356.915809     264.290036      0.100131        8.917914       
90              323.374000      2389.295895     264.946075      0.100132        9.018046       
91              323.407000      2421.680255     265.588088      0.100135        9.118181       
92              323.428000      2454.065424     266.216355      0.100131        9.218312       
93              323.439000      2486.452018     266.831245      0.100132        9.318444       
94              323.439000      2518.838612     267.433061      0.100132        9.418576       
95              323.488000      2551.229789     268.022725      0.100131        9.518707       
96              323.538000      2583.616266     268.600461      0.100101        9.618808       
97              323.517000      2616.012611     269.166287      0.100138        9.718946       
98              323.401000      2648.392813     269.719313      0.100124        9.819070       
99              323.538000      2680.790291     270.262616      0.100135        9.919205       
100             323.487000      2713.181691     270.794534      0.100132        10.019337      
101             323.472000      2745.571589     271.315776      0.100132        10.119469      
102             323.472000      2777.961488     271.826805      0.100132        10.219601      
103             323.538000      2810.355083     272.328512      0.100123        10.319724      
104             323.548000      2842.752915     272.820722      0.100133        10.419857      
105             323.505000      2875.146117     273.303149      0.100132        10.519989      
106             323.548000      2907.533919     273.776743      0.100102        10.620091      
107             323.473000      2939.924241     274.240934      0.100133        10.720224      
108             323.518000      2972.318745     274.696946      0.100132        10.820356      
109             323.543000      3004.716077     275.144829      0.100133        10.920489      
110             323.609000      3037.117104     275.585133      0.100124        11.020613      
111             323.642000      3069.524349     276.017845      0.100133        11.120746      
112             323.642000      3101.931593     276.442834      0.100133        11.220879      
113             323.702000      3134.335134     276.860712      0.100103        11.320982      
114             323.707000      3166.748887     277.271430      0.100133        11.421115      
115             323.773000      3199.171192     277.675606      0.100139        11.521254      
116             323.674000      3231.571283     278.071815      0.100101        11.621355      
117             323.701000      3263.984435     278.461611      0.100133        11.721488      
118             323.731000      3296.400268     278.845054      0.100132        11.821620      
119             323.760000      3328.811234     279.222210      0.100108        11.921728      
120             323.791000      3361.223684     279.593324      0.100103        12.021831      
121             323.805000      3393.640450     279.958456      0.100112        12.121943      
122             323.904000      3426.071662     280.318468      0.100126        12.222069      
123             323.940000      3458.510366     280.672964      0.100138        12.322207      
124             323.910000      3490.944122     281.021483      0.100132        12.422339      
125             323.790000      3523.366186     281.363471      0.100133        12.522472      
126             323.871000      3555.785997     281.700569      0.100101        12.622573      
127             323.850000      3588.223137     282.032395      0.100161        12.722734      
128             323.904000      3620.656292     282.359364      0.100132        12.822866      
129             323.872000      3653.103409     282.681188      0.100185        12.923051      
130             323.871000      3685.533260     282.997886      0.100132        13.023183      
131             323.904000      3717.978075     283.310115      0.100168        13.123351      
132             323.939000      3750.414735     283.617768      0.100132        13.223483      
133             323.903000      3782.847791     283.920527      0.100132        13.323615      
134             323.837000      3815.274237     284.218277      0.100132        13.423747      
135             324.007000      3847.717382     284.512873      0.100131        13.523878      
136             323.974000      3880.148151     284.802816      0.100103        13.623981      
137             323.974000      3912.588316     285.088611      0.100132        13.724113      
138             324.003000      3945.033328     285.370493      0.100138        13.824251      
139             324.068000      3977.482905     285.648772      0.100132        13.924383      
140             324.098000      4009.935486     285.923291      0.100132        14.024515      
141             324.158000      4042.394075     286.194343      0.100132        14.124647      
142             324.182000      4074.855391     286.461751      0.100133        14.224780      
143             324.083000      4107.310035     286.724755      0.100143        14.324923      
144             324.182000      4139.783022     286.984861      0.100169        14.425092      
145             324.112000      4172.237329     287.240805      0.100133        14.525225      
146             324.129000      4204.683290     287.493284      0.100102        14.625327      
147             324.144000      4237.140477     287.742506      0.100132        14.725459      
148             324.177000      4269.600968     287.988585      0.100132        14.825591      
149             324.188000      4302.062561     288.231435      0.100132        14.925723      
150             324.106000      4334.515943     288.470503      0.100132        15.025855      
151             324.144000      4366.973778     288.706661      0.100134        15.125989      
152             324.069000      4399.423456     288.939215      0.100132        15.226121      
153             324.034000      4431.870276     289.168507      0.100134        15.326255      
154             324.094000      4464.332179     289.395274      0.100162        15.426417      
155             324.098000      4496.785408     289.619079      0.100134        15.526551      
156             324.144000      4529.233519     289.840245      0.100104        15.626655      
157             324.192000      4561.695513     290.058962      0.100132        15.726787      
158             324.214000      4594.159709     290.275050      0.100132        15.826919      
159             324.182000      4626.621025     290.488223      0.100133        15.927052      
160             324.253000      4659.089127     290.699173      0.100132        16.027184      
161             324.116000      4691.543510     290.906652      0.100132        16.127316      
162             324.252000      4724.022211     291.112478      0.100165        16.227481      
163             324.187000      4756.484028     291.315316      0.100133        16.327614      
164             324.232000      4788.950027     291.515953      0.100132        16.427746      
165             324.253000      4821.417804     291.714284      0.100131        16.527877      
166             324.322000      4853.889247     291.910622      0.100121        16.627998      
167             324.287000      4886.360753     292.104422      0.100132        16.728130      
168             324.104000      4918.813935     292.294827      0.100132        16.828262      
169             324.104000      4951.267441     292.482981      0.100133        16.928395      
170             324.074000      4983.717942     292.668746      0.100133        17.028528      
171             324.039000      5016.181790     292.852229      0.100185        17.128713      
172             324.074000      5048.632615     293.033690      0.100134        17.228847      
173             324.178000      5081.093855     293.213655      0.100134        17.328981      
174             324.178000      5113.554771     293.391550      0.100133        17.429114      
175             324.178000      5146.016011     293.567414      0.100134        17.529248      
176             324.223000      5178.483054     293.741543      0.100138        17.629386      
177             324.223000      5210.949448     293.913702      0.100136        17.729522      
178             324.112000      5243.405051     294.083305      0.100137        17.829659      
179             324.385000      5275.888641     294.252542      0.100139        17.929798      
180             324.348000      5308.368201     294.419692      0.100138        18.029936      
181             324.456000      5340.861496     294.585606      0.100147        18.130083      
182             323.705000      5373.277962     294.745565      0.100142        18.230225      
183             323.770000      5405.700290     294.904127      0.100140        18.330365      
184             323.770000      5438.123589     295.060971      0.100143        18.430508      
185             323.679000      5470.536804     295.215624      0.100140        18.530648      
186             323.679000      5502.951314     295.368620      0.100144        18.630792      
187             323.784000      5535.374396     295.520532      0.100138        18.730930      
188             323.817000      5567.800459     295.671003      0.100137        18.831067      
189             323.647000      5600.208851     295.818979      0.100135        18.931202      
190             323.646000      5632.617467     295.965395      0.100136        19.031338      
191             324.494000      5665.111647     296.114719      0.100138        19.131476      
192             324.423000      5697.598718     296.262119      0.100138        19.231614      
193             324.446000      5730.092958     296.408133      0.100153        19.331767      
194             324.511000      5762.603768     296.553021      0.100184        19.431951      
195             324.541000      5795.102655     296.696511      0.100138        19.532089      
196             324.541000      5827.602839     296.838543      0.100142        19.632231      
197             324.417000      5860.089633     296.978499      0.100139        19.732370      
198             324.482000      5892.587155     297.117389      0.100152        19.832522      
199             324.572000      5925.095312     297.255342      0.100157        19.932679      
200             324.572000      5957.598277     297.391894      0.100141        20.032820      
201             324.636000      5990.107001     297.527403      0.100139        20.132959      
202             324.696000      6022.621085     297.661865      0.100137        20.233096      
203             324.731000      6055.138023     297.795172      0.100135        20.333231      
204             324.736000      6087.656112     297.927200      0.100137        20.433368      
205             324.761000      6120.176380     298.058061      0.100136        20.533504      
206             324.698000      6152.691962     298.187352      0.100141        20.633645      
207             324.769000      6185.212381     298.315728      0.100134        20.733779      
