#timestep       power           acc-energy      avg-power       dt              acc-time       
1               120.094000      12.028255       120.094000      0.100157        0.100157       
2               120.122000      25.000590       120.108527      0.107993        0.208150       
3               119.991000      37.017329       120.070350      0.100147        0.308297       
4               119.945000      49.031500       120.039611      0.100164        0.408461       
5               119.791000      61.030365       119.990651      0.100165        0.508626       
6               119.731000      73.018671       119.947944      0.100127        0.608753       
7               119.543000      84.999868       119.890699      0.100225        0.708978       
8               119.391000      96.955444       119.828855      0.100138        0.809116       
9               119.259000      108.894463      119.766112      0.100110        0.909226       
10              119.299000      120.840945      119.719769      0.100139        1.009365       
11              119.053000      132.762198      119.659592      0.100134        1.109499       
12              119.051000      144.681703      119.609219      0.100121        1.209620       
13              118.999000      156.596478      119.562570      0.100125        1.309745       
14              118.954000      168.510673      119.519338      0.100158        1.409903       
15              118.943000      180.420198      119.481122      0.100128        1.510031       
16              118.934000      192.329059      119.447098      0.100130        1.610161       
17              118.972000      204.243034      119.419280      0.100141        1.710302       
18              118.948000      216.151870      119.393218      0.100118        1.810420       
19              118.878000      228.055956      119.366214      0.100137        1.910557       
20              118.889000      239.958885      119.342452      0.100118        2.010675       
21              139.274000      253.904948      120.287979      0.100134        2.110809       
22              160.708000      269.994069      122.118259      0.100114        2.210923       
23              190.373000      289.056879      125.075616      0.100134        2.311057       
24              215.878000      310.674038      128.846607      0.100136        2.411193       
25              230.925000      333.795404      132.916422      0.100125        2.511318       
26              254.863000      359.316875      137.592544      0.100138        2.611456       
27              294.696000      388.823312      143.393582      0.100125        2.711581       
28              320.628000      420.955047      149.710380      0.100215        2.811796       
29              346.855000      455.687719      156.489822      0.100136        2.911932       
30              373.045000      493.035865      163.687863      0.100117        3.012049       
31              373.806000      530.468798      170.448774      0.100140        3.112189       
32              378.995000      568.418704      176.949479      0.100133        3.212322       
33              379.576000      606.426029      183.074606      0.100131        3.312453       
34              380.513000      644.527557      188.867840      0.100132        3.412585       
35              380.142000      682.606381      194.322229      0.100170        3.512755       
36              380.323000      720.679756      199.476082      0.100108        3.612863       
37              380.323000      758.783176      204.355766      0.100187        3.713050       
38              380.418000      796.873289      208.978836      0.100127        3.813177       
39              380.756000      834.987726      213.372910      0.100102        3.913279       
40              380.815000      873.121779      217.550725      0.100138        4.013417       
41              380.853000      911.257351      221.525829      0.100132        4.113549       
42              380.958000      949.403057      225.314465      0.100131        4.213680       
43              381.036000      987.579054      228.931111      0.100190        4.313870       
44              381.065000      1025.735854     232.382281      0.100132        4.414002       
45              381.467000      1063.932908     235.689261      0.100132        4.514134       
46              381.805000      1102.169151     238.860483      0.100146        4.614280       
47              381.893000      1140.408861     241.898430      0.100132        4.714412       
48              381.902000      1178.647945     244.810085      0.100128        4.814540       
49              382.038000      1216.902556     247.606007      0.100133        4.914673       
50              382.109000      1255.164276     250.291692      0.100133        5.014806       
51              382.213000      1293.436028     252.874234      0.100132        5.114938       
52              382.350000      1331.718057     255.360015      0.100123        5.215061       
53              382.479000      1370.012620     257.754553      0.100122        5.315183       
54              382.551000      1408.314774     260.061901      0.100123        5.415306       
55              382.584000      1446.620614     262.286098      0.100124        5.515430       
56              382.753000      1484.942610     264.433952      0.100122        5.615552       
57              382.753000      1523.268816     266.506782      0.100133        5.715685       
58              382.818000      1561.601148     268.509334      0.100132        5.815817       
59              382.851000      1599.937167     270.444674      0.100133        5.915950       
60              382.858000      1638.269293     272.315485      0.100121        6.016071       
61              382.881000      1676.604870     274.125477      0.100124        6.116195       
62              382.881000      1714.940448     275.877163      0.100124        6.216319       
63              382.858000      1753.274488     277.572984      0.100126        6.316445       
64              382.851000      1791.610124     279.215869      0.100132        6.416577       
65              382.910000      1829.951668     280.809173      0.100132        6.516709       
66              382.970000      1868.299220     282.355163      0.100132        6.616841       
67              383.034000      1906.653564     283.856029      0.100133        6.716974       
68              383.188000      1945.021795     285.315008      0.100129        6.817103       
69              383.282000      1983.400205     286.733137      0.100131        6.917234       
70              383.341000      2021.780689     288.111502      0.100121        7.017355       
71              383.435000      2060.175186     289.452569      0.100133        7.117488       
72              383.572000      2098.583018     290.758313      0.100132        7.217620       
73              383.500000      2136.984023     292.027351      0.100133        7.317753       
74              383.604000      2175.395059     293.263519      0.100132        7.417885       
75              383.715000      2213.817209     294.468237      0.100132        7.518017       
76              383.819000      2252.249773     295.642652      0.100132        7.618149       
77              383.819000      2290.684256     296.786651      0.100137        7.718286       
78              383.849000      2329.115218     297.901544      0.100120        7.818406       
79              383.786000      2367.541408     298.987490      0.100124        7.918530       
80              383.852000      2405.977660     300.047235      0.100133        8.018663       
81              383.917000      2444.420037     301.081631      0.100132        8.118795       
82              383.938000      2482.870660     302.091237      0.100148        8.218943       
83              383.968000      2521.318144     303.076742      0.100132        8.319075       
84              384.062000      2559.784641     304.040160      0.100157        8.419232       
85              384.092000      2598.244926     304.981055      0.100133        8.519365       
86              383.942000      2636.704780     305.898691      0.100171        8.619536       
87              383.777000      2675.133522     306.793013      0.100133        8.719669       
88              383.740000      2713.558943     307.666616      0.100134        8.819803       
89              383.747000      2751.984298     308.520667      0.100132        8.919935       
90              383.903000      2790.426425     309.357513      0.100135        9.020070       
91              383.933000      2828.870788     310.176296      0.100133        9.120203       
92              384.009000      2867.322377     310.978113      0.100132        9.220335       
93              384.074000      2905.782395     311.763438      0.100137        9.320472       
94              384.111000      2944.244582     312.532431      0.100133        9.420605       
95              384.170000      2982.712677     313.285869      0.100133        9.520738       
96              384.324000      3021.192348     314.025153      0.100123        9.620861       
97              384.448000      3059.687896     314.750550      0.100132        9.720993       
98              384.680000      3098.207058     315.463528      0.100133        9.821126       
99              384.400000      3136.697799     316.159281      0.100132        9.921258       
100             384.193000      3175.168196     316.839069      0.100133        10.021391      
101             384.066000      3213.622037     317.504085      0.100123        10.121514      
102             384.001000      3252.074361     318.155519      0.100136        10.221650      
103             383.961000      3290.521528     318.793907      0.100133        10.321783      
104             384.059000      3328.979276     319.420981      0.100135        10.421918      
105             384.059000      3367.436255     320.036108      0.100133        10.522051      
106             384.127000      3405.900428     320.640285      0.100134        10.622185      
107             384.097000      3444.361213     321.232891      0.100133        10.722318      
108             384.127000      3482.821161     321.814751      0.100123        10.822441      
109             384.397000      3521.303913     322.388357      0.100112        10.922553      
110             384.434000      3559.783835     322.951784      0.100095        11.022648      
111             384.801000      3598.310111     323.508511      0.100120        11.122768      
112             384.895000      3636.856960     324.056300      0.100149        11.222917      
113             384.955000      3675.399425     324.594786      0.100122        11.323039      
114             384.978000      3713.949582     325.124108      0.100136        11.423175      
115             385.076000      3752.509167     325.645077      0.100135        11.523310      
116             385.182000      3791.080137     326.157992      0.100137        11.623447      
117             385.248000      3829.656945     326.662700      0.100135        11.723582      
118             385.267000      3868.233345     327.158990      0.100129        11.823711      
119             385.327000      3906.818449     327.647482      0.100136        11.923847      
120             385.478000      3945.414434     328.129044      0.100125        12.023972      
121             385.387000      3984.005547     328.601951      0.100136        12.124108      
122             385.309000      4022.574977     329.066307      0.100100        12.224208      
123             385.347000      4061.148983     329.523436      0.100102        12.324310      
124             385.421000      4099.743115     329.973944      0.100135        12.424445      
125             385.451000      4138.340636     330.417491      0.100136        12.524581      
126             385.449000      4176.938343     330.853992      0.100137        12.624718      
127             385.479000      4215.538282     331.283849      0.100135        12.724853      
128             385.479000      4254.138607     331.706999      0.100136        12.824989      
129             385.472000      4292.744785     332.123607      0.100153        12.925142      
130             385.504000      4331.343758     332.533945      0.100126        13.025268      
131             385.499000      4369.941460     332.937977      0.100124        13.125392      
132             385.634000      4408.556149     333.336949      0.100133        13.225525      
133             385.769000      4447.184357     333.730939      0.100133        13.325658      
134             385.859000      4485.822733     334.119735      0.100136        13.425794      
135             385.932000      4524.468420     334.503315      0.100136        13.525930      
136             386.038000      4563.124721     334.882036      0.100136        13.626066      
137             386.020000      4601.766481     335.254978      0.100103        13.726169      
138             386.050000      4640.415491     335.622777      0.100114        13.826283      
139             386.020000      4679.066130     335.985115      0.100126        13.926409      
140             386.027000      4717.717855     336.342334      0.100127        14.026536      
141             386.052000      4756.374786     336.694691      0.100134        14.126670      
142             386.052000      4795.031717     337.042087      0.100134        14.226804      
143             385.883000      4833.672497     337.383454      0.100136        14.326940      
144             385.876000      4872.311419     337.720023      0.100133        14.427073      
145             385.932000      4910.957105     338.052348      0.100136        14.527209      
146             385.932000      4949.601634     338.380113      0.100133        14.627342      
147             385.926000      4988.246334     338.703386      0.100135        14.727477      
148             385.958000      5026.893467     339.022504      0.100133        14.827610      
149             386.021000      5065.546907     339.337762      0.100133        14.927743      
150             386.021000      5104.201506     339.648829      0.100136        15.027879      
151             386.028000      5142.854104     339.955803      0.100129        15.128008      
152             385.743000      5181.475850     340.256848      0.100123        15.228131      
153             385.743000      5220.097982     340.553963      0.100124        15.328255      
154             385.597000      5258.708967     340.846300      0.100133        15.428388      
155             385.736000      5297.334255     341.135767      0.100134        15.528522      
156             385.764000      5335.961962     341.421700      0.100133        15.628655      
157             385.834000      5374.592820     341.704411      0.100123        15.728778      
158             386.004000      5413.241084     341.984623      0.100124        15.828902      
159             386.140000      5451.899876     342.262146      0.100116        15.929018      
160             386.136000      5490.566377     342.536233      0.100137        16.029155      
161             386.198000      5529.237928     342.807295      0.100134        16.129289      
162             386.297000      5567.919391     343.075622      0.100134        16.229423      
163             386.660000      5606.631791     343.342847      0.100120        16.329543      
164             386.609000      5645.339857     343.606510      0.100122        16.429665      
165             386.628000      5684.050599     343.867099      0.100124        16.529789      
166             386.673000      5722.769326     344.124845      0.100133        16.629922      
167             386.556000      5761.476725     344.378807      0.100134        16.730056      
168             386.483000      5800.172176     344.629283      0.100122        16.830178      
169             386.478000      5838.867512     344.876769      0.100123        16.930301      
170             386.478000      5877.567101     345.121372      0.100134        17.030435      
171             386.473000      5916.282420     345.363188      0.100176        17.130611      
172             386.480000      5954.981822     345.602130      0.100133        17.230744      
173             386.480000      5993.681610     345.838313      0.100134        17.330878      
174             386.493000      6032.382314     346.071855      0.100133        17.431011      
175             386.591000      6071.093217     346.303291      0.100134        17.531145      
176             386.676000      6109.801031     346.532513      0.100104        17.631249      
177             386.736000      6148.526067     346.759551      0.100133        17.731382      
178             386.841000      6187.250012     346.984562      0.100103        17.831485      
179             386.927000      6225.989530     347.207580      0.100121        17.931606      
180             386.956000      6264.736982     347.428312      0.100134        18.031740      
181             386.927000      6303.490429     347.646494      0.100157        18.131897      
182             387.047000      6342.246994     347.862890      0.100134        18.232031      
183             387.085000      6381.006976     348.077127      0.100133        18.332164      
184             387.149000      6419.773367     348.289384      0.100133        18.432297      
185             387.208000      6458.545665     348.499666      0.100133        18.532430      
186             387.208000      6497.318351     348.707690      0.100134        18.632564      
187             387.208000      6536.092586     348.913498      0.100138        18.732702      
188             387.260000      6574.870479     349.117386      0.100134        18.832836      
189             387.166000      6613.638572     349.318618      0.100133        18.932969      
190             387.175000      6652.408341     349.517784      0.100135        19.033104      
191             387.271000      6691.187335     349.715366      0.100134        19.133238      
192             387.258000      6729.964640     349.910821      0.100133        19.233371      
193             387.010000      6768.717112     350.102967      0.100133        19.333504      
194             386.982000      6807.477617     350.293041      0.100161        19.433665      
195             386.902000      6846.215792     350.480687      0.100124        19.533789      
196             386.771000      6884.944333     350.665768      0.100133        19.633922      
197             386.580000      6923.653748     350.848001      0.100133        19.734055      
198             386.620000      6962.367555     351.028598      0.100134        19.834189      
199             386.731000      7001.106013     351.208000      0.100169        19.934358      
200             386.864000      7039.844253     351.386212      0.100134        20.034492      
201             386.959000      7078.592005     351.563123      0.100134        20.134626      
202             387.022000      7117.342196     351.738578      0.100124        20.234750      
203             387.335000      7156.127986     351.913866      0.100135        20.334885      
204             387.366000      7194.916106     352.087583      0.100133        20.435018      
205             387.509000      7233.718932     352.260306      0.100134        20.535152      
206             387.511000      7272.522733     352.431366      0.100136        20.635288      
207             387.774000      7311.351707     352.602038      0.100133        20.735421      
