#timestep       power           acc-energy      avg-power       dt              acc-time       
1               127.895000      12.805871       127.895000      0.100128        0.100128       
2               127.895000      26.613415       127.895000      0.107960        0.208088       
3               128.692000      39.499731       128.153925      0.100133        0.308221       
4               128.648000      52.382156       128.275081      0.100137        0.408358       
5               128.492000      65.248317       128.317797      0.100132        0.508490       
6               127.595000      78.024659       128.198881      0.100132        0.608622       
7               128.434000      90.885141       128.232098      0.100133        0.708755       
8               127.532000      103.655175      128.145433      0.100132        0.808887       
9               128.286000      116.500837      128.160917      0.100133        0.909020       
10              128.189000      129.336914      128.163704      0.100134        1.009154       
11              127.379000      142.096469      128.092846      0.100170        1.109324       
12              118.691000      153.981117      127.314466      0.100131        1.209455       
13              118.750000      165.871792      126.659620      0.100132        1.309587       
14              118.677000      177.755158      126.092617      0.100132        1.409719       
15              118.762000      189.647034      125.606457      0.100132        1.509851       
16              118.730000      201.535707      125.178779      0.100132        1.609983       
17              118.750000      213.426263      124.802360      0.100131        1.710114       
18              118.730000      225.313510      124.466511      0.100120        1.810234       
19              118.739000      237.203084      124.166303      0.100132        1.910366       
20              118.698000      249.088433      123.893959      0.100131        2.010497       
21              118.705000      260.974603      123.647786      0.100132        2.110629       
22              145.084000      275.502299      124.618706      0.100133        2.210762       
23              171.623000      292.687425      126.655441      0.100133        2.310895       
24              190.650000      311.781403      129.313698      0.100152        2.411047       
25              214.563000      333.266026      132.712971      0.100132        2.511179       
26              238.518000      357.149072      136.770078      0.100131        2.611310       
27              262.556000      383.439329      141.415280      0.100132        2.711442       
28              286.281000      412.102069      146.574012      0.100121        2.811563       
29              329.259000      445.071431      152.856474      0.100132        2.911695       
30              355.450000      480.664061      159.592082      0.100134        3.011829       
31              357.872000      516.496711      165.971727      0.100127        3.111956       
32              381.683000      554.711576      172.695550      0.100122        3.212078       
33              381.435000      592.903519      179.005683      0.100127        3.312205       
34              381.252000      631.076756      184.940077      0.100126        3.412331       
35              380.918000      669.215790      190.526509      0.100124        3.512455       
36              380.918000      707.354062      195.803179      0.100122        3.612577       
37              380.606000      745.462238      200.786984      0.100125        3.712702       
38              380.559000      783.564566      205.507667      0.100122        3.812824       
39              380.530000      821.665513      209.986203      0.100126        3.912950       
40              380.405000      859.752422      214.237976      0.100122        4.013072       
41              380.341000      897.832924      218.281200      0.100122        4.113194       
42              380.543000      935.933270      222.137027      0.100121        4.213315       
43              380.471000      974.046191      225.814049      0.100173        4.313488       
44              380.544000      1012.147398     229.324106      0.100123        4.413611       
45              380.504000      1050.244981     232.677590      0.100124        4.513735       
46              380.555000      1088.348811     235.886728      0.100127        4.613862       
47              380.471000      1126.441948     238.957575      0.100121        4.713983       
48              380.430000      1164.530600     241.899810      0.100120        4.814103       
49              380.394000      1202.621353     244.721837      0.100135        4.914238       
50              380.582000      1240.730551     247.434883      0.100134        5.014372       
51              380.517000      1278.842373     250.041035      0.100158        5.114530       
52              380.399000      1316.932866     252.544194      0.100133        5.214663       
53              380.405000      1355.023579     254.953122      0.100132        5.314795       
54              380.365000      1393.110668     257.272242      0.100133        5.414928       
55              380.464000      1431.241911     259.510920      0.100223        5.515151       
56              380.405000      1469.332625     261.666709      0.100132        5.615283       
57              380.376000      1507.420434     263.746453      0.100132        5.715415       
58              380.438000      1545.510648     265.755449      0.100122        5.815537       
59              380.406000      1583.601461     267.696090      0.100132        5.915669       
60              380.501000      1621.701787     269.573709      0.100132        6.015801       
61              380.466000      1659.798989     271.389291      0.100133        6.115934       
62              380.343000      1697.883495     273.144380      0.100132        6.216066       
63              380.373000      1735.971384     274.844314      0.100133        6.316199       
64              380.337000      1774.055669     276.490629      0.100133        6.416332       
65              380.433000      1812.149567     278.087823      0.100133        6.516465       
66              380.525000      1850.251915     279.638037      0.100131        6.616596       
67              380.472000      1888.349338     281.141255      0.100132        6.716728       
68              380.446000      1926.439591     282.599757      0.100120        6.816848       
69              380.414000      1964.531967     284.015770      0.100134        6.916982       
70              380.601000      2002.643067     285.394038      0.100134        7.017116       
71              380.517000      2040.746518     286.732368      0.100136        7.117252       
72              380.580000      2078.854754     288.034384      0.100132        7.217384       
73              380.573000      2116.962670     289.300684      0.100133        7.317517       
74              380.581000      2155.071007     290.532891      0.100132        7.417649       
75              380.510000      2193.172615     291.731340      0.100133        7.517782       
76              380.624000      2231.285638     292.899781      0.100133        7.617915       
77              380.255000      2269.360951     294.033095      0.100131        7.718046       
78              380.254000      2307.433122     295.137279      0.100123        7.818169       
79              380.304000      2345.514103     296.214277      0.100133        7.918302       
80              380.336000      2383.597527     297.264756      0.100131        8.018433       
81              380.437000      2421.691445     298.290578      0.100132        8.118565       
82              380.103000      2459.752298     299.287344      0.100133        8.218698       
83              380.073000      2497.810148     300.259754      0.100133        8.318831       
84              380.044000      2535.865094     301.208687      0.100133        8.418964       
85              380.226000      2573.945108     302.137617      0.100151        8.519115       
86              380.110000      2612.025288     303.043890      0.100182        8.619297       
87              380.142000      2650.089667     303.929267      0.100132        8.719429       
88              380.167000      2688.156929     304.794833      0.100133        8.819562       
89              380.161000      2726.222830     305.640881      0.100131        8.919693       
90              380.248000      2764.298203     306.469127      0.100133        9.019826       
91              380.219000      2802.370292     307.278859      0.100132        9.119958       
92              380.126000      2840.433069     308.069994      0.100132        9.220090       
93              380.198000      2878.503435     308.844910      0.100133        9.320223       
94              380.270000      2916.580631     309.604111      0.100132        9.420355       
95              380.436000      2954.674829     310.349094      0.100133        9.520488       
96              380.295000      2992.754528     311.077096      0.100132        9.620620       
97              380.094000      3030.814100     311.788028      0.100132        9.720752       
98              380.267000      3068.891375     312.486235      0.100133        9.820885       
99              380.281000      3106.970053     313.170488      0.100133        9.921018       
100             380.379000      3145.058543     313.842047      0.100133        10.021151      
101             380.404000      3183.147635     314.500532      0.100128        10.121279      
102             380.406000      3221.238829     315.146169      0.100133        10.221412      
103             380.398000      3259.329602     315.779206      0.100134        10.321546      
104             380.400000      3297.420195     316.400092      0.100133        10.421679      
105             380.582000      3335.529013     317.010893      0.100133        10.521812      
106             380.582000      3373.638211     317.610183      0.100134        10.621946      
107             380.219000      3411.710680     318.194884      0.100133        10.722079      
108             380.531000      3449.814391     318.771651      0.100133        10.822212      
109             380.531000      3487.918101     319.337844      0.100133        10.922345      
110             380.643000      3526.033407     319.894772      0.100134        11.022479      
111             380.673000      3564.163138     320.442105      0.100164        11.122643      
112             380.308000      3602.244519     320.976247      0.100133        11.222776      
113             380.648000      3640.360326     321.503953      0.100134        11.322910      
114             380.672000      3678.478536     322.022618      0.100134        11.423044      
115             380.672000      3716.596365     322.532264      0.100133        11.523177      
116             380.632000      3754.710570     323.032789      0.100134        11.623311      
117             380.400000      3792.811814     323.522913      0.100161        11.723472      
118             380.706000      3830.933048     324.007191      0.100133        11.823605      
119             380.727000      3869.056385     324.483512      0.100133        11.923738      
120             380.792000      3907.186230     324.952441      0.100133        12.023871      
121             380.904000      3945.327290     325.414549      0.100133        12.124004      
122             380.539000      3983.431802     325.866096      0.100133        12.224137      
123             380.846000      4021.567435     326.312805      0.100134        12.324271      
124             380.846000      4059.702307     326.752304      0.100132        12.424403      
125             380.998000      4097.853542     327.186004      0.100135        12.524538      
126             380.969000      4136.000730     327.612582      0.100132        12.624670      
127             380.640000      4174.115735     328.029865      0.100134        12.724804      
128             380.999000      4212.266308     328.443431      0.100133        12.824937      
129             381.005000      4250.434627     328.850817      0.100178        12.925115      
130             380.999000      4288.585962     329.251720      0.100135        13.025250      
131             381.039000      4326.740540     329.646803      0.100133        13.125383      
132             380.999000      4364.891113     330.035600      0.100133        13.225516      
133             381.070000      4403.048795     330.419088      0.100133        13.325649      
134             380.999000      4441.199368     330.796327      0.100133        13.425782      
135             381.070000      4479.357432     331.168509      0.100134        13.525916      
136             381.163000      4517.524426     331.535901      0.100133        13.626049      
137             381.032000      4555.678304     331.896976      0.100133        13.726182      
138             380.929000      4593.821867     332.252076      0.100133        13.826315      
139             380.929000      4631.965431     332.602070      0.100133        13.926448      
140             381.094000      4670.125135     332.948241      0.100132        14.026580      
141             381.101000      4708.286303     333.289561      0.100134        14.126714      
142             380.736000      4746.410921     333.623507      0.100134        14.226848      
143             381.071000      4784.568704     333.955123      0.100133        14.326981      
144             381.041000      4822.736819     334.282041      0.100168        14.427149      
145             381.195000      4860.907399     334.605404      0.100134        14.527283      
146             381.073000      4899.065762     334.923504      0.100134        14.627417      
147             381.144000      4937.230855     335.237759      0.100133        14.727550      
148             381.201000      4975.404704     335.548178      0.100141        14.827691      
149             381.201000      5013.575504     335.854409      0.100133        14.927824      
150             381.175000      5051.744081     336.156388      0.100134        15.027958      
151             381.288000      5089.923211     336.455112      0.100132        15.128090      
152             381.273000      5128.101220     336.749811      0.100133        15.228223      
153             381.347000      5166.287021     337.041147      0.100134        15.328357      
154             381.318000      5204.469155     337.328507      0.100132        15.428489      
155             381.466000      5242.666871     337.613121      0.100134        15.528623      
156             381.524000      5280.870396     337.894459      0.100134        15.628757      
157             381.603000      5319.081449     338.172716      0.100133        15.728890      
158             381.635000      5357.296088     338.447657      0.100134        15.829024      
159             381.666000      5395.513449     338.719334      0.100133        15.929157      
160             381.666000      5433.729666     338.987608      0.100130        16.029287      
161             381.738000      5471.955001     339.253012      0.100135        16.129422      
162             381.706000      5510.175222     339.514931      0.100130        16.229552      
163             381.874000      5548.413412     339.774675      0.100133        16.329685      
164             381.894000      5586.653222     340.031372      0.100132        16.429817      
165             381.946000      5624.898620     340.285277      0.100133        16.529950      
166             381.946000      5663.144019     340.536125      0.100133        16.630083      
167             381.989000      5701.394106     340.784229      0.100134        16.730217      
168             381.872000      5739.632477     341.028685      0.100134        16.830351      
169             382.083000      5777.891212     341.271493      0.100132        16.930483      
170             382.090000      5816.151412     341.511491      0.100134        17.030617      
171             382.180000      5854.439733     341.749328      0.100184        17.130801      
172             382.150000      5892.705941     341.984108      0.100134        17.230935      
173             382.121000      5930.968863     342.216006      0.100133        17.331068      
174             382.227000      5969.242781     342.445850      0.100134        17.431202      
175             382.156000      6007.524112     342.672748      0.100172        17.531374      
176             382.272000      6045.822415     342.897759      0.100186        17.631560      
177             382.256000      6084.115292     343.120115      0.100176        17.731736      
178             382.184000      6122.400574     343.339565      0.100175        17.831911      
179             382.176000      6160.685055     343.556520      0.100175        17.932086      
180             382.117000      6198.948341     343.770650      0.100135        18.032221      
181             382.221000      6237.221658     343.982988      0.100134        18.132355      
182             382.233000      6275.495795     344.193058      0.100133        18.232488      
183             382.182000      6313.764826     344.400554      0.100133        18.332621      
184             382.167000      6352.032354     344.605714      0.100133        18.432754      
185             382.271000      6390.310296     344.809219      0.100133        18.532887      
186             382.273000      6428.588056     345.010546      0.100132        18.633019      
187             382.281000      6466.866999     345.209765      0.100133        18.733152      
188             382.308000      6505.148264     345.407007      0.100132        18.833284      
189             382.340000      6543.433497     345.602336      0.100134        18.933418      
190             382.332000      6581.717930     345.795568      0.100134        19.033552      
191             382.404000      6620.011866     345.987166      0.100140        19.133692      
192             382.399000      6658.302626     346.176729      0.100133        19.233825      
193             382.470000      6696.601259     346.364700      0.100135        19.333960      
194             382.400000      6734.892501     346.550372      0.100134        19.434094      
195             382.468000      6773.190169     346.734487      0.100133        19.534227      
196             382.493000      6811.491105     346.916855      0.100135        19.634362      
197             382.463000      6849.789038     347.097220      0.100135        19.734497      
198             382.493000      6888.089592     347.275913      0.100134        19.834631      
199             382.457000      6926.386541     347.452631      0.100134        19.934765      
200             382.609000      6964.698328     347.628340      0.100133        20.034898      
201             382.546000      7003.006485     347.802000      0.100140        20.135038      
202             382.517000      7041.309059     347.973786      0.100133        20.235171      
203             382.599000      7079.643949     348.144390      0.100196        20.335367      
204             382.638000      7117.958640     348.313408      0.100133        20.435500      
205             382.741000      7156.284027     348.481280      0.100134        20.535634      
206             382.642000      7194.599501     348.647043      0.100134        20.635768      
207             382.736000      7232.924388     348.811659      0.100134        20.735902      
