#timestep       power           acc-energy      avg-power       dt              acc-time       
1               122.140000      12.225237       122.140000      0.100092        0.100092       
2               122.140000      25.212505       122.140000      0.106331        0.206423       
3               122.079000      37.436642       122.120075      0.100133        0.306556       
4               121.960000      49.649350       122.080661      0.100137        0.406693       
5               121.900000      61.859586       122.044959      0.100166        0.506859       
6               121.780000      74.053661       122.001250      0.100132        0.606991       
7               121.702000      86.240047       121.958874      0.100133        0.707124       
8               121.375000      98.393568       121.886450      0.100132        0.807256       
9               121.277000      110.540794      121.819179      0.100161        0.907417       
10              121.144000      122.670822      121.752080      0.100129        1.007546       
11              121.141000      134.813147      121.696789      0.100233        1.107779       
12              121.012000      146.930442      121.640022      0.100133        1.207912       
13              120.942000      159.040123      121.586590      0.100128        1.308040       
14              120.909000      171.146620      121.538409      0.100129        1.408169       
15              120.889000      183.251598      121.495296      0.100133        1.508302       
16              120.908000      195.358479      121.458734      0.100133        1.608435       
17              120.889000      207.463457      121.425344      0.100133        1.708568       
18              120.879000      219.567555      121.395097      0.100134        1.808702       
19              120.920000      231.675879      121.370174      0.100135        1.908837       
20              120.890000      243.781441      121.346240      0.100137        2.008974       
21              120.890000      255.886882      121.324579      0.100136        2.109110       
22              143.179000      270.224398      122.315159      0.100137        2.209247       
23              170.797000      287.326643      124.417275      0.100132        2.309379       
24              189.430000      306.295026      127.119060      0.100134        2.409513       
25              212.558000      327.578884      130.527977      0.100132        2.509645       
26              247.303000      352.335646      135.007328      0.100107        2.609752       
27              273.012000      379.669880      140.106153      0.100121        2.709873       
28              298.405000      409.549769      145.746990      0.100132        2.810005       
29              323.705000      441.962999      151.870169      0.100132        2.910137       
30              328.335000      474.839510      157.739946      0.100131        3.010268       
31              374.410000      512.329933      164.715127      0.100132        3.110400       
32              374.776000      549.857003      171.266632      0.100132        3.210532       
33              375.980000      587.504632      177.458248      0.100132        3.310664       
34              376.010000      625.155266      183.287205      0.100132        3.410796       
35              376.024000      662.806925      188.784023      0.100131        3.510927       
36              375.821000      700.442016      193.970874      0.100141        3.611068       
37              375.696000      738.060832      198.873957      0.100131        3.711199       
38              375.788000      775.694873      203.522554      0.100147        3.811346       
39              376.193000      813.363830      207.942836      0.100132        3.911478       
40              376.158000      851.030788      212.141743      0.100136        4.011614       
41              376.407000      888.726067      216.142548      0.100145        4.111759       
42              376.339000      926.421310      219.952152      0.100163        4.211922       
43              375.902000      964.079924      223.575295      0.100182        4.312104       
44              376.280000      1001.758722     227.040902      0.100135        4.412239       
45              376.510000      1039.462433     230.357963      0.100140        4.512379       
46              376.510000      1077.165768     233.530962      0.100139        4.612518       
47              376.860000      1114.901514     236.576345      0.100132        4.712650       
48              376.658000      1152.617409     239.490833      0.100133        4.812783       
49              376.521000      1190.319210     242.283697      0.100132        4.912915       
50              376.787000      1228.047646     244.970304      0.100132        5.013047       
51              376.664000      1265.764142     247.549302      0.100133        5.113180       
52              376.664000      1303.480262     250.029206      0.100132        5.213312       
53              376.912000      1341.221214     252.420316      0.100132        5.313444       
54              376.628000      1378.934482     254.717764      0.100134        5.413578       
55              376.683000      1416.652504     256.932719      0.100132        5.513710       
56              376.945000      1454.396761     259.073334      0.100132        5.613842       
57              376.807000      1492.127200     261.136505      0.100132        5.713974       
58              376.778000      1529.855488     263.128151      0.100134        5.814108       
59              376.815000      1567.586727     265.052945      0.100132        5.914240       
60              376.600000      1605.296815     266.910086      0.100133        6.014373       
61              376.453000      1642.991431     268.703959      0.100131        6.114504       
62              376.856000      1680.727152     270.446553      0.100133        6.214637       
63              376.680000      1718.444874     272.131075      0.100132        6.314769       
64              376.506000      1756.158351     273.760853      0.100167        6.414936       
65              376.512000      1793.859627     275.340081      0.100133        6.515069       
66              375.975000      1831.507132     276.863372      0.100133        6.615202       
67              376.179000      1869.182211     278.344553      0.100152        6.715354       
68              376.493000      1906.871419     279.786165      0.100106        6.815460       
69              376.516000      1944.557282     281.186168      0.100091        6.915551       
70              376.653000      1982.257234     282.548190      0.100092        7.015643       
71              376.576000      2019.949856     283.870826      0.100093        7.115736       
72              376.045000      2057.587824     285.149352      0.100089        7.215825       
73              376.237000      2095.245009     286.395522      0.100089        7.315914       
74              376.487000      2132.927593     287.611440      0.100090        7.416004       
75              376.642000      2170.625314     288.797027      0.100089        7.516093       
76              376.636000      2208.322434     289.951374      0.100089        7.616182       
77              376.581000      2246.014050     291.075061      0.100089        7.716271       
78              376.482000      2283.695757     292.168702      0.100089        7.816360       
79              376.556000      2321.385623     293.235646      0.100091        7.916451       
80              376.822000      2359.111912     294.279536      0.100117        8.016568       
81              376.888000      2396.850461     295.298639      0.100132        8.116700       
82              376.791000      2434.579674     296.291731      0.100133        8.216833       
83              376.824000      2472.312192     297.261308      0.100133        8.316966       
84              376.672000      2510.029489     298.206008      0.100133        8.417099       
85              376.607000      2547.742537     299.127785      0.100139        8.517238       
86              376.999000      2585.510674     300.033070      0.100181        8.617419       
87              376.999000      2623.266747     300.917268      0.100149        8.717568       
88              376.862000      2661.003070     301.779689      0.100133        8.817701       
89              376.920000      2698.745200     302.623395      0.100133        8.917834       
90              376.611000      2736.455636     303.444916      0.100131        9.017965       
91              376.763000      2774.182046     304.250080      0.100133        9.118098       
92              376.891000      2811.922026     305.039157      0.100135        9.218233       
93              376.920000      2849.664533     305.811580      0.100134        9.318367       
94              376.953000      2887.409591     306.567914      0.100132        9.418499       
95              376.680000      2925.127689     307.305471      0.100133        9.518632       
96              376.571000      2962.834120     308.026523      0.100131        9.618763       
97              376.512000      3000.535396     308.732123      0.100133        9.718896       
98              376.948000      3038.280330     309.427778      0.100133        9.819029       
99              376.879000      3076.017978     310.108685      0.100132        9.919161       
100             376.949000      3113.762636     310.776682      0.100132        10.019293      
101             376.583000      3151.484955     311.428082      0.100170        10.119463      
102             376.315000      3189.166881     312.063859      0.100134        10.219597      
103             376.453000      3226.863379     312.688650      0.100136        10.319733      
104             376.697000      3264.571878     313.303576      0.100103        10.419836      
105             376.886000      3302.303066     313.908657      0.100113        10.519949      
106             377.064000      3340.059616     314.504127      0.100133        10.620082      
107             376.822000      3377.792310     315.086217      0.100134        10.720216      
108             376.666000      3415.509383     315.656091      0.100134        10.820350      
109             376.547000      3453.216423     316.214450      0.100139        10.920489      
110             376.986000      3490.965917     316.766629      0.100135        11.020624      
111             377.182000      3528.734659     317.310624      0.100134        11.120758      
112             377.144000      3566.499219     317.844565      0.100133        11.220891      
113             377.144000      3604.263779     318.369061      0.100133        11.321024      
114             376.974000      3642.011694     318.882875      0.100134        11.421158      
115             377.080000      3679.769845     319.388673      0.100133        11.521291      
116             377.267000      3717.547099     319.887372      0.100134        11.621425      
117             377.296000      3755.335935     320.377909      0.100157        11.721582      
118             377.555000      3793.141649     320.862214      0.100133        11.821715      
119             377.351000      3830.926937     321.336670      0.100133        11.921848      
120             377.123000      3868.689394     321.801323      0.100133        12.021981      
121             377.155000      3906.455433     322.258569      0.100134        12.122115      
122             377.560000      3944.261649     322.711636      0.100133        12.222248      
123             377.424000      3982.055001     323.156243      0.100135        12.322383      
124             377.312000      4019.836761     323.592776      0.100134        12.422517      
125             377.222000      4057.609509     324.021608      0.100134        12.522651      
126             376.925000      4095.352516     324.441280      0.100134        12.622785      
127             377.265000      4133.132211     324.857050      0.100141        12.722926      
128             377.506000      4170.933019     325.268177      0.100133        12.823059      
129             377.936000      4208.795404     325.676462      0.100182        12.923241      
130             378.062000      4246.651886     326.079239      0.100133        13.023374      
131             377.876000      4284.489743     326.474451      0.100133        13.123507      
132             377.997000      4322.334425     326.864540      0.100119        13.223626      
133             377.997000      4360.184399     327.248819      0.100133        13.323759      
134             378.483000      4398.083037     327.630991      0.100133        13.423892      
135             379.027000      4436.036147     328.011531      0.100133        13.524025      
136             378.927000      4473.979245     328.385743      0.100133        13.624158      
137             378.724000      4511.902015     328.753013      0.100133        13.724291      
138             378.673000      4549.819678     329.114593      0.100133        13.824424      
139             378.410000      4587.711385     329.469085      0.100134        13.924558      
140             378.606000      4625.621961     329.819908      0.100132        14.024690      
141             379.068000      4663.579556     330.169038      0.100134        14.124824      
142             379.224000      4701.552393     330.514348      0.100133        14.224957      
143             379.059000      4739.509087     330.853681      0.100134        14.325091      
144             379.007000      4777.460574     331.187942      0.100134        14.425225      
145             379.162000      4815.427582     331.518662      0.100134        14.525359      
146             379.220000      4853.400397     331.845251      0.100134        14.625493      
147             379.710000      4891.426076     332.170763      0.100144        14.725637      
148             379.739000      4929.450481     332.492038      0.100133        14.825770      
149             379.661000      4967.465177     332.808463      0.100128        14.925898      
150             379.519000      5005.467933     333.119744      0.100134        15.026032      
151             379.309000      5043.449281     333.425510      0.100133        15.126165      
152             379.667000      5081.466856     333.729612      0.100134        15.226299      
153             380.195000      5119.537303     334.033190      0.100134        15.326433      
154             380.366000      5157.624491     334.333934      0.100133        15.426566      
155             380.225000      5195.697561     334.629889      0.100133        15.526699      
156             379.791000      5233.727553     334.919273      0.100134        15.626833      
157             379.857000      5271.763774     335.205390      0.100133        15.726966      
158             379.857000      5309.799995     335.487887      0.100133        15.827099      
159             380.162000      5347.864476     335.768732      0.100127        15.927226      
160             380.444000      5385.959475     336.047846      0.100133        16.027359      
161             380.739000      5424.084394     336.325329      0.100134        16.127493      
162             380.630000      5462.198018     336.598712      0.100133        16.227626      
163             380.402000      5500.288811     336.867344      0.100133        16.327759      
164             380.134000      5538.353149     337.131070      0.100134        16.427893      
165             380.715000      5576.475284     337.395118      0.100133        16.528026      
166             381.264000      5614.652773     337.659294      0.100134        16.628160      
167             381.291000      5652.829535     337.920446      0.100125        16.728285      
168             381.036000      5690.979621     338.176966      0.100122        16.828407      
169             380.947000      5729.120797     338.429925      0.100122        16.928529      
170             380.734000      5767.242169     338.678667      0.100126        17.028655      
171             380.703000      5805.380234     338.924446      0.100178        17.128833      
172             381.294000      5843.560346     339.170693      0.100133        17.228966      
173             381.134000      5881.724818     339.413173      0.100134        17.329100      
174             381.009000      5919.872583     339.652122      0.100123        17.429223      
175             380.909000      5958.010715     339.887773      0.100124        17.529347      
176             380.595000      5996.117409     340.118964      0.100124        17.629471      
177             380.405000      6034.205079     340.346470      0.100124        17.729595      
178             380.938000      6072.347639     340.574424      0.100128        17.829723      
179             381.281000      6110.535219     340.801810      0.100156        17.929879      
180             381.143000      6148.701355     341.025859      0.100136        18.030015      
181             380.804000      6186.833544     341.245561      0.100136        18.130151      
182             380.689000      6224.956502     341.462230      0.100142        18.230293      
183             380.844000      6263.095362     341.677381      0.100143        18.330436      
184             381.319000      6301.280647     341.892768      0.100140        18.430576      
185             381.282000      6339.461464     342.105623      0.100138        18.530714      
186             381.346000      6377.646783     342.316524      0.100133        18.630847      
187             381.282000      6415.826075     342.524830      0.100134        18.730981      
188             380.811000      6453.957442     342.728411      0.100132        18.831113      
189             381.085000      6492.114340     342.931279      0.100127        18.931240      
190             381.443000      6530.306702     343.133893      0.100126        19.031366      
191             381.533000      6568.508456     343.334859      0.100127        19.131493      
192             381.831000      6606.739667     343.535283      0.100126        19.231619      
193             381.458000      6644.936582     343.731713      0.100134        19.331753      
194             381.223000      6683.111872     343.924918      0.100139        19.431892      
195             381.602000      6721.328931     344.118105      0.100149        19.532041      
196             381.739000      6759.557801     344.310009      0.100144        19.632185      
197             381.597000      6797.768254     344.499225      0.100133        19.732318      
198             381.478000      6835.975564     344.685971      0.100156        19.832474      
199             380.789000      6874.105490     344.867339      0.100134        19.932608      
200             381.024000      6912.258566     345.048067      0.100133        20.032741      
201             381.226000      6950.432251     345.228004      0.100134        20.132875      
202             381.196000      6988.602931     345.406011      0.100134        20.233009      
203             381.196000      7026.773230     345.582263      0.100133        20.333142      
204             381.131000      7064.937401     345.756471      0.100134        20.433276      
205             380.952000      7103.083649     345.928107      0.100134        20.533410      
206             380.851000      7141.230066     346.097632      0.100161        20.633571      
207             381.160000      7179.397904     346.266970      0.100136        20.733707      
