#timestep       power           acc-energy      avg-power       dt              acc-time       
1               120.355000      12.051026       120.355000      0.100129        0.100129       
2               120.355000      25.067900       120.355000      0.108154        0.208283       
3               120.295000      37.114001       120.335519      0.100138        0.308421       
4               120.325000      49.162504       120.332941      0.100133        0.408554       
5               120.377000      61.216576       120.341614      0.100136        0.508690       
6               120.285000      73.261194       120.332303      0.100134        0.608824       
7               120.235000      85.300926       120.318559      0.100135        0.708959       
8               120.148000      97.331705       120.297451      0.100133        0.809092       
9               120.077000      109.355496      120.273173      0.100134        0.909226       
10              119.862000      121.357637      120.232382      0.100133        1.009359       
11              119.576000      133.331021      120.173144      0.100132        1.109491       
12              119.557000      145.306807      120.122123      0.100168        1.209659       
13              119.509000      157.273841      120.075249      0.100135        1.309794       
14              119.509000      169.240874      120.035033      0.100135        1.409929       
15              119.538000      181.210573      120.002075      0.100133        1.510062       
16              119.555000      193.181974      119.974272      0.100133        1.610195       
17              119.549000      205.152893      119.949374      0.100134        1.710329       
18              119.522000      217.120870      119.925737      0.100132        1.810461       
19              119.522000      229.089206      119.904577      0.100135        1.910596       
20              119.522000      241.057302      119.885525      0.100133        2.010729       
21              119.488000      253.021874      119.866668      0.100132        2.110861       
22              149.046000      267.950471      121.188514      0.100161        2.211022       
23              173.935000      285.367452      123.473850      0.100135        2.311157       
24              201.601000      305.558195      126.718805      0.100152        2.411309       
25              229.144000      328.506280      130.803120      0.100147        2.511456       
26              270.473000      355.589282      136.158262      0.100132        2.611588       
27              301.059000      385.734922      142.247327      0.100132        2.711720       
28              312.415000      417.017973      148.307174      0.100133        2.811853       
29              340.243000      451.086845      154.907048      0.100131        2.911984       
30              367.998000      487.935957      161.990983      0.100134        3.012118       
31              395.805000      527.568307      169.513528      0.100131        3.112249       
32              423.443000      569.968501      177.428674      0.100132        3.212381       
33              424.409000      612.466697      184.894713      0.100135        3.312516       
34              424.301000      654.952380      191.919170      0.100131        3.412647       
35              424.758000      697.484673      198.556321      0.100133        3.512780       
36              425.019000      740.042250      204.832682      0.100131        3.612911       
37              424.980000      782.596348      210.769535      0.100132        3.713043       
38              424.910000      825.143436      216.392753      0.100132        3.813175       
39              424.801000      867.679185      221.725361      0.100131        3.913306       
40              424.821000      910.216936      226.792382      0.100131        4.013437       
41              425.226000      952.795241      231.622582      0.100131        4.113568       
42              425.553000      995.406714      236.231035      0.100132        4.213700       
43              425.708000      1038.057121     240.631505      0.100187        4.313887       
44              426.114000      1080.724768     244.839175      0.100132        4.414019       
45              426.035000      1123.384931     248.858464      0.100133        4.514152       
46              425.822000      1166.023340     252.698650      0.100132        4.614284       
47              425.809000      1208.660446     256.375434      0.100132        4.714416       
48              426.159000      1251.333026     259.906593      0.100133        4.814549       
49              426.243000      1294.013590     263.295540      0.100132        4.914681       
50              426.768000      1336.746296     266.559603      0.100131        5.014812       
51              426.724000      1379.475024     269.695039      0.100132        5.114944       
52              426.417000      1422.173011     272.704177      0.100132        5.215076       
53              426.130000      1464.843538     275.594617      0.100135        5.315211       
54              426.079000      1507.517481     278.377764      0.100155        5.415366       
55              426.451000      1550.219299     281.066010      0.100133        5.515499       
56              426.575000      1592.933107     283.660573      0.100132        5.615631       
57              426.971000      1635.686140     286.171142      0.100131        5.715762       
58              426.768000      1678.419700     288.591816      0.100133        5.815895       
59              426.753000      1721.146210     290.929994      0.100120        5.916015       
60              426.541000      1763.854054     293.186954      0.100126        6.016141       
61              426.327000      1806.543030     295.366644      0.100132        6.116273       
62              426.665000      1849.265849     297.481559      0.100132        6.216405       
63              426.852000      1892.009101     299.532466      0.100136        6.316541       
64              427.455000      1934.831543     301.529635      0.100180        6.416721       
65              427.046000      1977.592086     303.458186      0.100131        6.516852       
66              427.026000      2020.366854     305.328766      0.100169        6.617021       
67              426.686000      2063.105857     307.138414      0.100165        6.717186       
68              426.756000      2105.838215     308.895361      0.100133        6.817319       
69              427.050000      2148.609835     310.606086      0.100156        6.917475       
70              427.388000      2191.405050     312.272410      0.100132        7.017607       
71              427.791000      2234.241046     313.897536      0.100133        7.117740       
72              427.420000      2277.039466     315.472409      0.100132        7.217872       
73              427.376000      2319.834762     317.003627      0.100135        7.318007       
74              426.934000      2362.584517     318.487496      0.100132        7.418139       
75              426.845000      2405.324934     319.930640      0.100131        7.518270       
76              427.244000      2448.105730     321.341107      0.100132        7.618402       
77              427.490000      2490.911159     322.718169      0.100132        7.718534       
78              427.687000      2533.736313     324.062482      0.100132        7.818666       
79              427.469000      2576.539639     325.370042      0.100132        7.918798       
80              427.431000      2619.338733     326.644460      0.100131        8.018929       
81              426.957000      2662.091218     327.881622      0.100133        8.119062       
82              426.924000      2704.839972     329.088226      0.100132        8.219194       
83              427.167000      2747.631853     330.269221      0.100176        8.319370       
84              427.208000      2790.409472     331.422113      0.100133        8.419503       
85              427.742000      2833.240134     332.554169      0.100132        8.519635       
86              427.639000      2876.080154     333.659228      0.100178        8.619813       
87              427.431000      2918.893780     334.736370      0.100165        8.719978       
88              427.018000      2961.651946     335.784015      0.100132        8.820110       
89              427.228000      3004.431140     336.810497      0.100132        8.920242       
90              427.535000      3047.234662     337.817448      0.100117        9.020359       
91              427.535000      3090.046307     338.802478      0.100136        9.120495       
92              427.906000      3132.893390     339.770104      0.100132        9.220627       
93              427.835000      3175.753900     340.716625      0.100180        9.320807       
94              427.847000      3218.595076     341.642704      0.100132        9.420939       
95              427.659000      3261.417855     342.547337      0.100133        9.521072       
96              427.831000      3304.257429     343.434920      0.100132        9.621204       
97              427.997000      3347.113196     344.305921      0.100131        9.721335       
98              428.365000      3390.006240     345.162921      0.100132        9.821467       
99              428.398000      3432.902589     346.002957      0.100132        9.921599       
100             428.235000      3475.783044     346.824585      0.100133        10.021732      
101             428.163000      3518.655862     347.629237      0.100132        10.121864      
102             427.858000      3561.498139     348.415137      0.100132        10.221996      
103             428.229000      3604.379706     349.189427      0.100137        10.322133      
104             428.463000      3647.282992     349.951056      0.100133        10.422266      
105             428.801000      3690.220551     350.701413      0.100134        10.522400      
106             428.879000      3733.165492     351.438352      0.100133        10.622533      
107             428.528000      3776.075286     352.158249      0.100133        10.722666      
108             428.462000      3818.978900     352.864222      0.100134        10.822800      
109             428.558000      3861.891698     353.558124      0.100133        10.922933      
110             428.760000      3904.824724     354.241254      0.100133        11.023066      
111             428.951000      3947.777303     354.913811      0.100134        11.123200      
112             429.015000      3990.752165     355.575180      0.100171        11.223371      
113             428.832000      4033.693686     356.223005      0.100136        11.323507      
114             428.586000      4076.609716     356.857303      0.100134        11.423641      
115             428.436000      4119.510298     357.479268      0.100133        11.523774      
116             428.524000      4162.419263     358.091270      0.100132        11.623906      
117             428.832000      4205.359927     358.695461      0.100134        11.724040      
118             428.881000      4248.305068     359.289827      0.100133        11.824173      
119             429.149000      4291.277045     359.876461      0.100133        11.924306      
120             428.820000      4334.216078     360.450586      0.100133        12.024439      
121             428.733000      4377.146399     361.014508      0.100133        12.124572      
122             428.586000      4420.062001     361.567989      0.100133        12.224705      
123             428.772000      4462.997514     362.114003      0.100136        12.324841      
124             429.088000      4505.963383     362.653747      0.100133        12.424974      
125             429.035000      4548.923516     363.184433      0.100132        12.525106      
126             429.147000      4591.895292     363.707593      0.100133        12.625239      
127             428.836000      4634.836356     364.220079      0.100134        12.725373      
128             428.756000      4677.802424     364.724322      0.100211        12.825584      
129             428.756000      4720.752627     365.220564      0.100174        12.925758      
130             428.846000      4763.693835     365.709662      0.100132        13.025890      
131             429.088000      4806.659704     366.193150      0.100133        13.126023      
132             429.212000      4849.637989     366.670255      0.100133        13.226156      
133             429.325000      4892.627589     367.141039      0.100133        13.326289      
134             428.980000      4935.583072     367.602233      0.100134        13.426423      
135             428.948000      4978.534494     368.056352      0.100132        13.526555      
136             428.631000      5021.454601     368.501473      0.100133        13.626688      
137             428.743000      5064.385924     368.940917      0.100133        13.726821      
138             429.016000      5107.344583     369.375973      0.100133        13.826954      
139             429.130000      5150.314658     369.805592      0.100133        13.927087      
140             429.191000      5193.290840     370.229514      0.100133        14.027220      
141             428.891000      5236.236554     370.645295      0.100132        14.127352      
142             428.797000      5279.174141     371.054575      0.100135        14.227487      
143             428.613000      5322.093733     371.456852      0.100136        14.327623      
144             428.678000      5365.018547     371.853984      0.100133        14.427756      
145             428.951000      5407.970697     372.247523      0.100133        14.527889      
146             429.055000      5450.934120     372.636394      0.100135        14.628024      
147             429.403000      5493.931960     373.022340      0.100134        14.728158      
148             429.192000      5536.908671     373.401648      0.100134        14.828292      
149             429.133000      5579.875613     373.775439      0.100125        14.928417      
150             429.200000      5622.850551     374.144706      0.100128        15.028545      
151             429.230000      5665.827634     374.509277      0.100126        15.128671      
152             429.668000      5708.852009     374.871962      0.100134        15.228805      
153             429.627000      5751.872709     375.229645      0.100135        15.328940      
154             429.766000      5794.906468     375.583580      0.100133        15.429073      
155             429.564000      5837.920000     375.931648      0.100133        15.529206      
156             429.502000      5880.935914     376.274927      0.100153        15.629359      
157             428.871000      5923.880053     376.609750      0.100133        15.729492      
158             429.021000      5966.839213     376.941287      0.100133        15.829625      
159             429.205000      6009.816797     377.269811      0.100133        15.929758      
160             429.259000      6052.800218     377.594573      0.100134        16.029892      
161             429.100000      6095.766859     377.914308      0.100132        16.130024      
162             428.865000      6138.710398     378.228652      0.100133        16.230157      
163             428.794000      6181.648114     378.538714      0.100136        16.330293      
164             429.099000      6224.615085     378.846847      0.100133        16.430426      
165             429.345000      6267.607117     379.152740      0.100134        16.530560      
166             429.580000      6310.623969     379.456373      0.100137        16.630697      
167             429.557000      6353.636800     379.756223      0.100133        16.730830      
168             429.557000      6396.658652     380.052566      0.100154        16.830984      
169             430.117000      6439.727558     380.348654      0.100133        16.931117      
170             429.915000      6482.775806     380.640070      0.100132        17.031249      
171             429.756000      6525.842515     380.927378      0.100212        17.131461      
172             430.144000      6568.914554     381.213379      0.100134        17.231595      
173             430.244000      6611.997037     381.496656      0.100135        17.331730      
174             430.690000      6655.123319     381.779235      0.100133        17.431863      
175             430.556000      6698.240488     382.057848      0.100143        17.532006      
176             430.279000      6741.325615     382.331696      0.100133        17.632139      
177             430.025000      6784.385309     382.601017      0.100133        17.732272      
178             429.812000      6827.423674     382.866118      0.100133        17.832405      
179             430.138000      6870.494682     383.130078      0.100133        17.932538      
180             430.168000      6913.568694     383.391273      0.100133        18.032671      
181             430.714000      6956.696949     383.652596      0.100132        18.132803      
182             430.206000      6999.775626     383.908267      0.100135        18.232938      
183             430.129000      7042.848744     384.160736      0.100140        18.333078      
184             429.952000      7085.901128     384.409484      0.100133        18.433211      
185             429.828000      7128.941525     384.654876      0.100134        18.533345      
186             430.293000      7172.027624     384.900125      0.100132        18.633477      
187             430.538000      7215.138685     385.144064      0.100133        18.733610      
188             430.941000      7258.306045     385.387641      0.100170        18.833780      
189             430.616000      7301.424487     385.626831      0.100132        18.933912      
190             430.604000      7344.542157     385.863444      0.100133        19.034045      
191             430.394000      7387.638369     386.096479      0.100132        19.134177      
192             430.370000      7430.732178     386.326963      0.100132        19.234309      
193             430.632000      7473.853513     386.556423      0.100135        19.334444      
194             430.702000      7516.980996     386.783875      0.100133        19.434577      
195             431.291000      7560.164439     387.011998      0.100126        19.534703      
196             430.900000      7603.322521     387.235872      0.100158        19.634861      
197             430.866000      7646.466426     387.457246      0.100133        19.734994      
198             430.383000      7689.561967     387.673947      0.100133        19.835127      
199             430.507000      7732.669925     387.889093      0.100133        19.935260      
200             430.696000      7775.813174     388.103115      0.100171        20.035431      
201             430.791000      7818.950431     388.315403      0.100135        20.135566      
202             431.279000      7862.136553     388.528006      0.100135        20.235701      
203             430.941000      7905.288830     388.736850      0.100135        20.335836      
204             430.968000      7948.442949     388.943776      0.100133        20.435969      
205             430.654000      7991.565626     389.147153      0.100133        20.536102      
206             430.530000      8034.675887     389.347955      0.100133        20.636235      
207             430.791000      8077.812282     389.548077      0.100133        20.736368      
