#timestep       power           acc-energy      avg-power       dt              acc-time       
1               118.826000      11.897216       118.826000      0.100123        0.100123       
2               118.826000      24.765240       118.826000      0.108293        0.208416       
3               118.826000      36.662574       118.826000      0.100124        0.308540       
4               118.696000      48.547248       118.794149      0.100127        0.408667       
5               118.638000      60.432047       118.763408      0.100177        0.508844       
6               118.572000      72.299326       118.731947      0.100085        0.608929       
7               118.490000      84.158279       118.697794      0.100084        0.709013       
8               118.491000      96.020532       118.672208      0.100111        0.809124       
9               118.321000      107.868250      118.633531      0.100132        0.909256       
10              118.290000      119.712746      118.599453      0.100131        1.009387       
11              118.349000      131.563268      118.576850      0.100132        1.109519       
12              118.308000      143.409566      118.554595      0.100131        1.209650       
13              118.358000      155.260871      118.539566      0.100131        1.309781       
14              118.358000      167.112295      118.526671      0.100132        1.409913       
15              118.358000      178.963599      118.515487      0.100131        1.510044       
16              118.288000      190.810261      118.501337      0.100151        1.610195       
17              118.223000      202.647930      118.485042      0.100130        1.710325       
18              118.158000      214.479327      118.466954      0.100132        1.810457       
19              118.138000      226.308603      118.449714      0.100131        1.910588       
20              118.055000      238.138540      118.430044      0.100207        2.010795       
21              118.107000      249.964948      118.414720      0.100133        2.110928       
22              157.320000      265.712838      120.176098      0.100101        2.211029       
23              201.163000      285.855490      123.684855      0.100131        2.311160       
24              248.050000      310.694721      128.849574      0.100138        2.411298       
25              295.160000      340.251748      135.480901      0.100139        2.511437       
26              342.220000      374.507628      143.405118      0.100099        2.611536       
27              389.286000      413.473600      152.481457      0.100096        2.711632       
28              436.248000      457.148568      162.585243      0.100115        2.811747       
29              480.449000      505.257848      173.515967      0.100134        2.911881       
30              567.998000      562.132056      186.630085      0.100131        3.012012       
31              627.626000      624.977503      200.818954      0.100132        3.112144       
32              630.980000      688.159423      214.227921      0.100133        3.212277       
33              630.844000      751.329618      226.822446      0.100136        3.312413       
34              630.975000      814.510406      238.681221      0.100132        3.412545       
35              629.668000      877.560952      249.826757      0.100133        3.512678       
36              629.905000      940.635230      260.361040      0.100133        3.612811       
37              629.201000      1003.650968     270.309984      0.100152        3.712963       
38              629.447000      1066.678755     279.740934      0.100132        3.813095       
39              631.856000      1129.948392     288.750973      0.100133        3.913228       
40              631.950000      1193.227441     297.313758      0.100133        4.013361       
41              631.403000      1256.478237     305.449676      0.100175        4.113536       
42              631.255000      1319.687063     313.191989      0.100132        4.213668       
43              630.919000      1382.875493     320.568585      0.100153        4.313821       
44              630.919000      1446.051305     327.609057      0.100133        4.413954       
45              631.358000      1509.271076     334.346918      0.100133        4.514087       
46              631.460000      1572.501060     340.794557      0.100133        4.614220       
47              631.460000      1635.730413     346.968239      0.100132        4.714352       
48              631.464000      1698.955114     352.884741      0.100124        4.814476       
49              631.735000      1762.227797     358.567526      0.100157        4.914633       
50              631.698000      1825.481613     364.021295      0.100133        5.014766       
51              631.810000      1888.746012     369.263671      0.100132        5.114898       
52              631.993000      1952.032527     374.308543      0.100138        5.215036       
53              632.082000      2015.324161     379.164715      0.100132        5.315168       
54              632.205000      2078.629377     383.843667      0.100134        5.415302       
55              632.333000      2141.946777     388.355003      0.100133        5.515435       
56              632.361000      2205.266349     392.705910      0.100132        5.615567       
57              632.562000      2268.605414     396.907852      0.100131        5.715698       
58              632.689000      2331.958462     400.967370      0.100133        5.815831       
59              632.777000      2395.319056     404.890879      0.100131        5.915962       
60              632.967000      2458.696143     408.686797      0.100127        6.016089       
61              632.870000      2522.066682     412.357023      0.100132        6.116221       
62              628.968000      2585.029523     415.845231      0.100105        6.216326       
63              629.397000      2648.052304     419.230573      0.100132        6.316458       
64              629.248000      2711.060164     422.507931      0.100132        6.416590       
65              629.553000      2774.099195     425.689291      0.100133        6.516723       
66              629.553000      2837.139485     428.774425      0.100135        6.616858       
67              629.048000      2900.127319     431.759958      0.100132        6.716990       
68              629.111000      2963.118316     434.658568      0.100127        6.817117       
69              628.944000      3026.097623     437.471068      0.100135        6.917252       
70              628.977000      3089.068914     440.203289      0.100117        7.017369       
71              629.182000      3152.070166     442.861921      0.100132        7.117501       
72              627.021000      3214.856287     445.416856      0.100134        7.217635       
73              630.890000      3278.024779     447.954611      0.100126        7.317761       
74              631.229000      3341.232263     450.428627      0.100134        7.417895       
75              631.157000      3404.431276     452.835734      0.100132        7.518027       
76              631.255000      3467.640102     455.180852      0.100132        7.618159       
77              631.618000      3530.886539     457.469876      0.100134        7.718293       
78              631.422000      3594.112086     459.697712      0.100132        7.818425       
79              631.623000      3657.357761     461.871748      0.100132        7.918557       
80              631.797000      3720.620858     463.993660      0.100132        8.018689       
81              631.806000      3783.885488     466.063363      0.100133        8.118822       
82              634.581000      3847.427353     468.116424      0.100132        8.218954       
83              634.483000      3910.959404     470.118881      0.100132        8.319086       
84              634.618000      3974.504974     472.075313      0.100132        8.419218       
85              634.676000      4038.058255     473.986493      0.100135        8.519353       
86              634.583000      4101.632684     475.853072      0.100183        8.619536       
87              634.548000      4165.171879     477.675457      0.100133        8.719669       
88              632.501000      4228.501041     479.433084      0.100125        8.819794       
89              632.799000      4291.865104     481.154734      0.100133        8.919927       
90              633.176000      4355.266916     482.842344      0.100133        9.020060       
91              633.200000      4418.671132     484.493161      0.100133        9.120193       
92              633.116000      4482.068202     486.107241      0.100135        9.220328       
93              633.235000      4545.475289     487.687870      0.100132        9.320460       
94              633.413000      4608.900200     489.236791      0.100132        9.420592       
95              633.293000      4672.342226     490.752557      0.100178        9.520770       
96              630.881000      4735.514864     492.211009      0.100134        9.620904       
97              630.810000      4798.675977     493.638584      0.100127        9.721031       
98              630.880000      4861.847884     495.037847      0.100133        9.821164       
99              632.954000      4925.227467     496.429798      0.100133        9.921297       
100             632.691000      4988.580715     497.791305      0.100133        10.021430      
101             633.140000      5051.978922     499.130314      0.100133        10.121563      
102             633.496000      5115.415945     500.446642      0.100138        10.221701      
103             633.779000      5178.878771     501.740124      0.100134        10.321835      
104             633.566000      5242.320269     503.006703      0.100134        10.421969      
105             633.903000      5305.794878     504.252371      0.100133        10.522102      
106             634.026000      5369.282438     505.475724      0.100134        10.622236      
107             636.710000      5433.038757     506.701294      0.100134        10.722370      
108             637.327000      5496.858771     507.909930      0.100137        10.822507      
109             637.229000      5560.663873     509.095412      0.100129        10.922636      
110             637.229000      5624.472162     510.259414      0.100134        11.022770      
111             637.114000      5688.269572     511.401434      0.100135        11.122905      
112             636.862000      5752.093971     512.521736      0.100217        11.223122      
113             635.855000      5815.776121     513.612593      0.100152        11.323274      
114             635.855000      5879.446826     514.684132      0.100134        11.423408      
115             635.560000      5943.087355     515.734474      0.100133        11.523541      
116             635.648000      6006.737332     516.767488      0.100134        11.623675      
117             635.711000      6070.395525     517.783424      0.100137        11.723812      
118             635.454000      6134.025440     518.779937      0.100133        11.823945      
119             635.619000      6197.671877     519.761098      0.100133        11.924078      
120             635.618000      6261.318850     520.725920      0.100134        12.024212      
121             635.649000      6324.968927     521.675060      0.100134        12.124346      
122             635.783000      6388.631786     522.609740      0.100133        12.224479      
123             635.981000      6452.314472     523.530840      0.100133        12.324612      
124             636.312000      6516.030937     524.439770      0.100134        12.424746      
125             637.387000      6579.855047     525.342762      0.100134        12.524880      
126             637.120000      6643.651784     526.229302      0.100133        12.625013      
127             636.405000      6707.377563     527.096273      0.100134        12.725147      
128             636.547000      6771.117560     527.950815      0.100134        12.825281      
129             631.753000      6834.410366     528.755392      0.100186        12.925467      
130             632.318000      6897.726896     529.551527      0.100134        13.025601      
131             631.889000      6961.035224     530.332667      0.100189        13.125790      
132             632.135000      7024.332797     531.103409      0.100133        13.225923      
133             631.716000      7087.589047     531.859428      0.100134        13.326057      
134             632.377000      7150.912118     532.609106      0.100135        13.426192      
135             632.377000      7214.234557     533.347677      0.100134        13.526326      
136             582.072000      7272.519172     533.705724      0.100133        13.626459      
137             532.781000      7325.868665     533.698979      0.100134        13.726593      
138             495.914000      7375.526518     533.425338      0.100134        13.826727      
139             435.097000      7419.092345     532.718393      0.100129        13.926856      
140             383.763000      7457.519686     531.655061      0.100133        14.026989      
141             360.139000      7493.581844     530.439343      0.100134        14.127123      
142             313.221000      7524.946229     528.910506      0.100135        14.227258      
143             229.483000      7547.925050     526.817831      0.100133        14.327391      
144             178.066000      7565.755333     524.397349      0.100133        14.427524      
145             126.517000      7578.423860     521.654928      0.100133        14.527657      
146             126.229000      7591.063674     518.948054      0.100134        14.627791      
147             124.815000      7603.562024     516.268348      0.100135        14.727926      
148             123.744000      7615.952511     513.617733      0.100130        14.828056      
149             123.663000      7628.335258     511.002055      0.100133        14.928189      
150             123.562000      7640.707769     508.420586      0.100132        15.028321      
151             123.409000      7653.065205     505.872226      0.100134        15.128455      
152             123.293000      7665.411520     503.356516      0.100138        15.228593      
153             123.298000      7677.753773     500.874619      0.100101        15.328694      
154             123.105000      7690.091356     498.420780      0.100220        15.428914      
