#timestep       power           acc-energy      avg-power       dt              acc-time       
1               132.449000      13.256423       132.449000      0.100087        0.100087       
2               132.449000      27.261448       132.449000      0.105739        0.205826       
3               132.365000      40.521376       132.421501      0.100177        0.306003       
4               132.286000      53.773656       132.388081      0.100179        0.406182       
5               132.249000      67.022096       132.360566      0.100178        0.506360       
6               132.183000      80.264982       132.331236      0.100186        0.606546       
7               132.091000      93.499311       132.297179      0.100191        0.706737       
8               132.058000      106.726109      132.267490      0.100159        0.806896       
9               130.938000      119.844656      132.120646      0.100189        0.907085       
10              131.938000      133.063656      132.102478      0.100191        1.007276       
11              119.706000      145.057958      130.980915      0.100198        1.107474       
12              119.739000      157.050777      130.048538      0.100158        1.207632       
13              119.706000      169.037178      129.256638      0.100132        1.307764       
14              141.471000      183.198991      130.125119      0.100104        1.407868       
15              163.776000      199.591822      132.358743      0.100093        1.507961       
16              193.350000      218.944030      136.154989      0.100089        1.608050       
17              218.607000      240.824186      140.986293      0.100089        1.708139       
18              244.038000      265.249461      146.690356      0.100088        1.808227       
19              269.432000      292.216910      153.128076      0.100090        1.908317       
20              278.697000      320.111136      159.385749      0.100088        2.008405       
21              301.889000      350.326602      166.150232      0.100088        2.108493       
22              324.926000      382.847795      173.345599      0.100088        2.208581       
23              347.976000      417.676365      180.916443      0.100089        2.308670       
24              371.244000      454.834177      188.825029      0.100090        2.408760       
25              372.566000      492.124308      196.155333      0.100090        2.508850       
26              373.385000      529.495293      202.954419      0.100087        2.608937       
27              373.693000      566.898225      209.262671      0.100090        2.709027       
28              373.693000      604.300784      215.121335      0.100089        2.809116       
29              373.701000      641.704517      220.577201      0.100090        2.909206       
30              374.246000      679.162425      225.688218      0.100089        3.009295       
31              374.312000      716.626564      230.472272      0.100088        3.109383       
32              374.285000      754.088001      234.957101      0.100088        3.209471       
33              374.359000      791.572194      239.174581      0.100129        3.309600       
34              374.280000      829.033879      243.140543      0.100090        3.409690       
35              374.242000      866.492135      246.879260      0.100091        3.509781       
36              374.604000      903.985500      250.420583      0.100088        3.609869       
37              374.828000      941.501285      253.776873      0.100088        3.709957       
38              374.549000      978.989520      256.949528      0.100089        3.810046       
39              374.638000      1016.487037     259.962067      0.100090        3.910136       
40              374.449000      1053.965637     262.819511      0.100090        4.010226       
41              374.247000      1091.423645     265.532847      0.100089        4.110315       
42              374.508000      1128.907402     268.123361      0.100088        4.210403       
43              374.678000      1166.419414     270.598244      0.100118        4.310521       
44              374.533000      1203.906048     272.956813      0.100089        4.410610       
45              374.657000      1241.411461     275.213838      0.100106        4.510716       
46              374.410000      1278.901509     277.368021      0.100131        4.610847       
47              374.300000      1316.380542     279.428293      0.100131        4.710978       
48              374.527000      1353.882305     281.407531      0.100131        4.811109       
49              374.770000      1391.421517     283.311669      0.100166        4.911275       
50              374.699000      1428.940503     285.137645      0.100131        5.011406       
51              374.765000      1466.466097     286.893374      0.100131        5.111537       
52              374.771000      1503.992292     288.581754      0.100131        5.211668       
53              374.503000      1541.491652     290.201427      0.100131        5.311799       
54              374.936000      1579.034368     291.769178      0.100131        5.411930       
55              374.881000      1616.568204     293.278838      0.100122        5.512052       
56              375.083000      1654.126015     294.738379      0.100132        5.612184       
57              375.090000      1691.684152     296.146860      0.100131        5.712315       
58              374.727000      1729.206316     297.500573      0.100132        5.812447       
59              374.881000      1766.743150     298.811018      0.100130        5.912577       
60              374.930000      1804.285641     300.078657      0.100132        6.012709       
61              374.856000      1841.820722     301.303555      0.100132        6.112841       
62              374.945000      1879.364340     302.490393      0.100131        6.212972       
63              375.254000      1916.939273     303.644495      0.100132        6.313104       
64              374.886000      1954.478108     304.756834      0.100134        6.413238       
65              375.094000      1992.038896     305.838202      0.100137        6.513375       
66              375.070000      2029.594655     306.886387      0.100130        6.613505       
67              374.931000      2067.137246     307.901253      0.100132        6.713637       
68              375.264000      2104.713181     308.891185      0.100132        6.813769       
69              375.133000      2142.275998     309.850546      0.100132        6.913901       
70              374.996000      2179.826223     310.780587      0.100135        7.014036       
71              375.231000      2217.398853     311.687727      0.100132        7.114168       
72              375.028000      2254.950782     312.566859      0.100131        7.214299       
73              374.859000      2292.486163     313.419617      0.100132        7.314431       
74              375.192000      2330.055264     314.253847      0.100133        7.414564       
75              375.224000      2367.626818     315.066256      0.100131        7.514695       
76              374.983000      2405.174616     315.854138      0.100132        7.614827       
77              375.251000      2442.748874     316.625038      0.100131        7.714958       
78              375.212000      2480.315474     317.375611      0.100121        7.815079       
79              375.029000      2517.867503     318.104953      0.100131        7.915210       
80              375.029000      2555.419907     318.816079      0.100132        8.015342       
81              375.397000      2593.005030     319.514121      0.100121        8.115463       
82              375.159000      2630.570826     320.192330      0.100133        8.215596       
83              375.497000      2668.170843     320.858282      0.100134        8.315730       
84              375.464000      2705.766804     321.507981      0.100132        8.415862       
85              375.164000      2743.332726     322.138875      0.100132        8.515994       
86              375.574000      2780.955851     322.760133      0.100175        8.616169       
87              375.715000      2818.576570     323.368467      0.100131        8.716300       
88              375.431000      2856.169227     323.959764      0.100132        8.816432       
89              375.526000      2893.771021     324.538841      0.100131        8.916563       
90              375.562000      2931.377170     325.105468      0.100133        9.016696       
91              375.224000      2968.949850     325.655941      0.100134        9.116830       
92              375.277000      3006.527462     326.195023      0.100133        9.216963       
93              375.674000      3044.144451     326.726780      0.100132        9.317095       
94              375.336000      3081.727596     327.243635      0.100132        9.417227       
95              375.431000      3119.321003     327.750624      0.100134        9.517361       
96              375.525000      3156.922697     328.248019      0.100131        9.617492       
97              375.125000      3194.485089     328.731052      0.100133        9.717625       
98              375.153000      3232.049909     329.204513      0.100132        9.817757       
99              375.464000      3269.645870     329.671553      0.100132        9.917889       
100             375.307000      3307.226111     330.127688      0.100132        10.018021      
101             375.461000      3344.822147     330.576323      0.100133        10.118154      
102             375.596000      3382.431701     331.017489      0.100133        10.218287      
103             375.225000      3420.003731     331.446487      0.100132        10.318419      
104             375.278000      3457.581068     331.867749      0.100132        10.418551      
105             375.616000      3495.208776     332.284389      0.100176        10.518727      
106             375.421000      3532.800807     332.691156      0.100133        10.618860      
107             375.695000      3570.420274     333.092882      0.100133        10.718993      
108             375.635000      3608.033734     333.486617      0.100133        10.819126      
109             375.395000      3645.637051     333.871071      0.100170        10.919296      
110             375.433000      3683.229908     334.248739      0.100132        11.019428      
111             375.707000      3720.850577     334.622075      0.100133        11.119561      
112             375.576000      3758.458504     334.987583      0.100134        11.219695      
113             375.948000      3796.103306     335.349910      0.100133        11.319828      
114             375.843000      3833.737593     335.704964      0.100133        11.419961      
115             375.438000      3871.330950     336.050321      0.100132        11.520093      
116             375.608000      3908.941706     336.391195      0.100133        11.620226      
117             375.745000      3946.566180     336.727414      0.100133        11.720359      
118             375.650000      3984.180766     337.057130      0.100132        11.820491      
119             375.940000      4021.824766     337.383745      0.100133        11.920624      
120             376.045000      4059.478904     337.705790      0.100132        12.020756      
121             375.804000      4097.108910     338.020524      0.100132        12.120888      
122             375.834000      4134.742296     338.330349      0.100133        12.221021      
123             376.142000      4172.406899     338.637644      0.100134        12.321155      
124             373.337000      4209.790253     338.917369      0.100133        12.421288      
125             373.616000      4247.214247     339.194946      0.100167        12.521455      
126             373.600000      4284.624309     339.467900      0.100134        12.621589      
127             373.638000      4322.037803     339.736853      0.100133        12.721722      
128             373.989000      4359.486444     340.004348      0.100133        12.821855      
129             374.263000      4396.987222     340.269993      0.100199        12.922054      
130             374.292000      4434.466203     340.531602      0.100133        13.022187      
131             374.416000      4471.957226     340.790163      0.100132        13.122319      
132             374.414000      4509.448423     341.044794      0.100133        13.222452      
133             374.480000      4546.945854     341.296092      0.100132        13.322584      
134             374.690000      4584.464313     341.545207      0.100132        13.422716      
135             377.559000      4622.270429     341.811879      0.100133        13.522849      
136             377.554000      4660.075666     342.074592      0.100132        13.622981      
137             377.762000      4697.901730     342.334988      0.100132        13.723113      
138             377.761000      4735.739028     342.591682      0.100162        13.823275      
139             377.798000      4773.568697     342.844872      0.100132        13.923407      
140             377.593000      4811.378217     343.092986      0.100133        14.023540      
141             377.828000      4849.210890     343.339246      0.100132        14.123672      
142             377.860000      4887.047146     343.582265      0.100133        14.223805      
143             377.794000      4924.876414     343.821424      0.100132        14.323937      
144             377.898000      4962.716475     344.057986      0.100133        14.424070      
145             378.012000      5000.567572     344.292070      0.100132        14.524202      
146             377.828000      5038.400624     344.521691      0.100133        14.624335      
147             378.102000      5076.260733     344.750050      0.100132        14.724467      
148             378.221000      5114.133515     344.976132      0.100134        14.824601      
149             378.300000      5152.013828     345.199709      0.100133        14.924734      
150             378.262000      5189.889959     345.420050      0.100132        15.024866      
151             378.338000      5227.773700     345.637976      0.100132        15.124998      
152             378.198000      5265.643800     345.852118      0.100133        15.225131      
153             378.482000      5303.542338     346.065317      0.100133        15.325264      
154             378.513000      5341.443980     346.275949      0.100133        15.425397      
155             378.488000      5379.343498     346.483705      0.100134        15.525531      
156             378.398000      5417.233625     346.688219      0.100133        15.625664      
157             378.766000      5455.160601     346.892472      0.100133        15.725797      
158             378.766000      5493.087955     347.094143      0.100134        15.825931      
159             378.395000      5530.977403     347.290941      0.100132        15.926063      
160             378.557000      5568.883451     347.486294      0.100133        16.026196      
161             378.611000      5606.794907     347.679556      0.100133        16.126329      
162             378.479000      5644.693144     347.869618      0.100133        16.226462      
163             378.391000      5682.582949     348.056812      0.100134        16.326596      
164             378.575000      5720.490421     348.242841      0.100132        16.426728      
165             378.342000      5758.376832     348.425215      0.100138        16.526866      
166             378.474000      5796.274190     348.606176      0.100132        16.626998      
167             378.474000      5834.171549     348.784971      0.100132        16.727130      
168             378.173000      5872.052760     348.959911      0.100169        16.827299      
169             378.205000      5909.923562     349.132908      0.100133        16.927432      
170             378.355000      5947.809004     349.304751      0.100132        17.027564      
171             377.937000      5985.668465     349.472211      0.100174        17.127738      
172             378.082000      6023.526950     349.638499      0.100133        17.227871      
173             378.139000      6061.390765     349.803192      0.100132        17.328003      
174             378.008000      6099.241840     349.965242      0.100133        17.428136      
175             378.138000      6137.105932     350.126184      0.100133        17.528269      
176             378.066000      6174.962437     350.284886      0.100132        17.628401      
177             377.995000      6212.811832     350.441395      0.100132        17.728533      
178             378.200000      6250.681755     350.597297      0.100132        17.828665      
179             378.400000      6288.571703     350.752574      0.100132        17.928797      
180             378.133000      6326.434917     350.904644      0.100132        18.028929      
181             378.165000      6364.301713     351.055213      0.100133        18.129062      
182             378.368000      6402.188836     351.205242      0.100133        18.229195      
183             378.195000      6440.058636     351.352687      0.100133        18.329328      
184             378.409000      6477.949486     351.499690      0.100132        18.429460      
185             378.440000      6515.843440     351.645273      0.100132        18.529592      
186             378.350000      6553.728004     351.788806      0.100131        18.629723      
187             378.291000      6591.607038     351.930489      0.100132        18.729855      
188             378.473000      6629.505053     352.071637      0.100134        18.829989      
189             378.291000      6667.384466     352.210327      0.100133        18.930122      
190             378.538000      6705.288990     352.348859      0.100134        19.030256      
191             378.475000      6743.187206     352.485611      0.100134        19.130390      
192             378.239000      6781.061790     352.619710      0.100134        19.230524      
193             378.267000      6818.938421     352.752562      0.100132        19.330656      
194             378.245000      6856.813228     352.883932      0.100133        19.430789      
195             378.113000      6894.674439     353.013278      0.100132        19.530921      
196             378.316000      6932.556355     353.142340      0.100133        19.631054      
197             378.302000      6970.448975     353.270063      0.100165        19.731219      
198             378.213000      7008.320577     353.396005      0.100133        19.831352      
199             378.147000      7046.184814     353.520348      0.100131        19.931483      
200             378.017000      7084.036790     353.642801      0.100133        20.031616      
201             377.847000      7121.871744     353.763190      0.100133        20.131749      
202             378.082000      7159.737791     353.883574      0.100153        20.231902      
203             377.945000      7197.582935     354.002075      0.100134        20.332036      
204             377.935000      7235.428590     354.119370      0.100138        20.432174      
205             377.940000      7273.272478     354.235539      0.100132        20.532306      
206             377.776000      7311.100322     354.349785      0.100133        20.632439      
207             377.866000      7348.949270     354.463398      0.100165        20.732604      
