#timestep       power           acc-energy      avg-power       dt              acc-time       
1               122.124000      12.227177       122.124000      0.100121        0.100121       
2               122.124000      25.346348       122.124000      0.107425        0.207546       
3               121.832000      37.546117       122.028968      0.100136        0.307682       
4               121.721000      49.738909       121.953330      0.100170        0.407852       
5               121.590000      61.918458       121.881690      0.100169        0.508021       
6               121.524000      74.093097       121.822772      0.100183        0.608204       
7               121.471000      86.262183       121.773024      0.100181        0.708385       
8               121.418000      98.420860       121.729052      0.100139        0.808524       
9               121.364000      110.576072      121.688816      0.100155        0.908679       
10              121.299000      122.729504      121.650102      0.100194        1.008873       
11              121.245000      134.876434      121.613508      0.100185        1.109058       
12              121.225000      147.018088      121.581328      0.100158        1.209216       
13              121.225000      159.156347      121.554079      0.100130        1.309346       
14              138.760000      173.046362      122.776069      0.100101        1.409447       
15              156.965000      188.756989      125.042969      0.100090        1.509537       
16              169.662000      205.737270      127.817293      0.100083        1.609620       
17              185.671000      224.319596      131.203915      0.100082        1.709702       
18              201.779000      244.513840      135.106717      0.100081        1.809783       
19              218.187000      266.350213      139.460303      0.100081        1.909864       
20              234.022000      289.770900      144.168715      0.100079        2.009943       
21              250.058000      314.798456      149.191460      0.100087        2.110030       
22              266.084000      341.429473      154.484935      0.100085        2.210115       
23              282.333000      369.686489      160.023655      0.100084        2.310199       
24              298.162000      399.526840      165.759513      0.100081        2.410280       
25              297.854000      429.335770      171.025646      0.100079        2.510359       
26              298.359000      459.197329      175.907682      0.100086        2.610445       
27              298.901000      489.112836      180.449150      0.100085        2.710530       
28              299.179000      519.053473      184.676711      0.100076        2.810606       
29              299.762000      549.060549      188.634642      0.100103        2.910709       
30              300.035000      579.087752      192.337604      0.100079        3.010788       
31              300.772000      609.191419      195.826327      0.100088        3.110876       
32              301.775000      639.395174      199.128789      0.100087        3.210963       
33              302.036000      669.624447      202.239426      0.100085        3.311048       
34              302.374000      699.886642      205.177358      0.100082        3.411130       
35              303.111000      730.222294      207.968787      0.100081        3.511211       
36              303.668000      760.623408      210.621758      0.100113        3.611324       
37              304.039000      791.060448      213.141514      0.100109        3.711433       
38              304.170000      821.503911      215.531838      0.100087        3.811520       
39              304.059000      851.934440      217.796866      0.100081        3.911601       
40              304.137000      882.372775      219.950827      0.100081        4.011682       
41              304.059000      912.803304      221.998034      0.100081        4.111763       
42              304.034000      943.231635      223.947376      0.100082        4.211845       
43              304.154000      973.682925      225.809666      0.100118        4.311963       
44              304.090000      1004.118685     227.585466      0.100088        4.412051       
45              303.970000      1034.540306     229.279708      0.100081        4.512132       
46              303.970000      1064.961624     230.900406      0.100080        4.612212       
47              304.005000      1095.386140     232.452992      0.100079        4.712291       
48              304.005000      1125.810657     233.941001      0.100079        4.812370       
49              304.012000      1156.245298     235.368958      0.100110        4.912480       
50              304.099000      1186.691082     236.741722      0.100118        5.012598       
51              304.116000      1217.128532     238.060629      0.100085        5.112683       
52              304.010000      1247.553244     239.326768      0.100078        5.212761       
53              303.908000      1277.967749     240.543286      0.100078        5.312839       
54              304.116000      1308.403678     241.718688      0.100080        5.412919       
55              304.286000      1338.856317     242.854490      0.100079        5.512998       
56              304.116000      1369.291942     243.946759      0.100079        5.613077       
57              304.194000      1399.745108     245.002459      0.100111        5.713188       
58              304.319000      1430.209570     246.023911      0.100107        5.813295       
59              304.259000      1460.661028     247.009540      0.100084        5.913379       
60              304.220000      1491.106453     247.961647      0.100077        6.013456       
61              304.289000      1521.558783     248.883711      0.100077        6.113533       
62              304.229000      1552.005108     249.775108      0.100077        6.213610       
63              304.293000      1582.458752     250.639286      0.100080        6.313690       
64              304.293000      1612.913917     251.476536      0.100085        6.413775       
65              304.325000      1643.371676     252.288532      0.100083        6.513858       
66              304.294000      1673.824811     253.075447      0.100078        6.613936       
67              304.297000      1704.277942     253.838940      0.100077        6.714013       
68              304.225000      1734.724475     254.578963      0.100079        6.814092       
69              304.292000      1765.179844     255.298583      0.100086        6.914178       
70              304.259000      1795.631606     255.997188      0.100085        7.014263       
71              304.259000      1826.081239     256.676091      0.100078        7.114341       
72              304.428000      1856.547784     257.338503      0.100078        7.214419       
73              304.428000      1887.014634     257.982794      0.100079        7.314498       
74              304.292000      1917.468177     258.607864      0.100080        7.414578       
75              304.323000      1947.927258     259.216745      0.100088        7.514666       
76              304.460000      1978.399137     259.811402      0.100085        7.614751       
77              304.417000      2008.864886     260.390039      0.100079        7.714830       
78              304.477000      2039.336639     260.954624      0.100079        7.814909       
79              304.542000      2069.814898     261.505753      0.100079        7.914988       
80              304.482000      2100.289893     262.042418      0.100088        8.015076       
81              304.482000      2130.764278     262.565834      0.100086        8.115162       
82              304.517000      2161.240948     263.076903      0.100082        8.215244       
83              304.547000      2191.721839     263.576050      0.100086        8.315330       
84              304.674000      2222.215746     264.064840      0.100087        8.415417       
85              304.537000      2252.695332     264.540521      0.100085        8.515502       
86              304.641000      2283.194161     265.006491      0.100114        8.615616       
87              304.603000      2313.681570     265.461207      0.100089        8.715705       
88              304.537000      2344.169683     265.904954      0.100113        8.815818       
89              304.612000      2374.671092     266.339660      0.100132        8.915950       
90              304.673000      2405.179523     266.765400      0.100135        9.016085       
91              304.611000      2435.680831     267.181094      0.100132        9.116217       
92              304.466000      2466.167621     267.586180      0.100132        9.216349       
93              304.432000      2496.652833     267.982216      0.100138        9.316487       
94              304.602000      2527.153240     268.371614      0.100132        9.416619       
95              304.546000      2557.647736     268.752225      0.100131        9.516750       
96              304.530000      2588.140324     269.124739      0.100130        9.616880       
97              304.596000      2618.639522     269.490257      0.100130        9.717010       
98              304.662000      2649.145633     269.848995      0.100131        9.817141       
99              304.454000      2679.631525     270.198396      0.100133        9.917274       
100             304.536000      2710.125019     270.541624      0.100131        10.017405      
101             304.566000      2740.622431     270.878366      0.100134        10.117539      
102             304.566000      2771.119538     271.208504      0.100133        10.217672      
103             304.661000      2801.627072     271.533166      0.100136        10.317808      
104             304.591000      2832.126378     271.850901      0.100132        10.417940      
105             304.596000      2862.626490     272.162638      0.100133        10.518073      
106             304.592000      2893.125896     272.468454      0.100132        10.618205      
107             304.559000      2923.621998     272.768247      0.100132        10.718337      
108             304.631000      2954.125309     273.063158      0.100132        10.818469      
109             304.601000      2984.625312     273.352381      0.100131        10.918600      
110             304.564000      3015.127701     273.636068      0.100151        11.018751      
111             304.530000      3045.620899     273.914286      0.100132        11.118883      
112             304.733000      3076.134423     274.189349      0.100132        11.219015      
113             304.665000      3106.641139     274.458945      0.100132        11.319147      
114             304.755000      3137.156867     274.724601      0.100132        11.419279      
115             304.755000      3167.672899     274.985642      0.100133        11.519412      
116             304.695000      3198.182619     275.241663      0.100132        11.619544      
117             304.571000      3228.680532     275.492256      0.100134        11.719678      
118             304.635000      3259.185157     275.739147      0.100135        11.819813      
119             304.733000      3289.700206     275.982719      0.100137        11.919950      
120             304.766000      3320.219168     276.222511      0.100139        12.020089      
121             304.629000      3350.725021     276.457214      0.100141        12.120230      
122             304.596000      3381.227569     276.687800      0.100141        12.220371      
123             304.630000      3411.734131     276.914919      0.100143        12.320514      
124             304.571000      3442.233871     277.137892      0.100140        12.420654      
125             304.531000      3472.729605     277.356980      0.100140        12.520794      
126             304.696000      3503.241253     277.573895      0.100138        12.620932      
127             304.870000      3533.771240     277.788771      0.100141        12.721073      
128             304.662000      3564.280397     277.998667      0.100141        12.821214      
129             304.629000      3594.799349     278.205141      0.100184        12.921398      
130             304.832000      3625.324616     278.409906      0.100138        13.021536      
131             304.755000      3655.842782     278.610963      0.100140        13.121676      
132             304.760000      3686.361753     278.809013      0.100141        13.221817      
133             304.904000      3716.894839     279.005167      0.100140        13.321957      
134             304.962000      3747.434344     279.198831      0.100142        13.422099      
135             304.536000      3777.932711     279.386480      0.100147        13.522246      
136             304.536000      3808.427728     279.571350      0.100136        13.622382      
137             304.506000      3838.919131     279.753300      0.100134        13.722516      
138             304.537000      3869.425821     279.932909      0.100174        13.822690      
139             304.631000      3899.930655     280.110545      0.100137        13.922827      
140             304.527000      3930.425684     280.284904      0.100139        14.022966      
141             304.538000      3960.921815     280.456869      0.100139        14.123105      
142             304.537000      3991.418150     280.626408      0.100140        14.223245      
143             304.537000      4021.915095     280.793579      0.100142        14.323387      
144             304.478000      4052.405826     280.958017      0.100141        14.423528      
145             304.899000      4082.938107     281.123087      0.100139        14.523667      
146             304.691000      4113.449864     281.284474      0.100140        14.623807      
147             304.625000      4143.954402     281.443214      0.100138        14.723945      
148             304.762000      4174.473269     281.600737      0.100140        14.824085      
149             304.762000      4204.992135     281.756147      0.100140        14.924225      
150             304.752000      4235.510001     281.909419      0.100140        15.024365      
151             304.762000      4266.028867     282.060726      0.100140        15.124505      
152             304.795000      4296.551039     282.210261      0.100140        15.224645      
153             304.462000      4327.041386     282.355672      0.100145        15.324790      
154             304.462000      4357.530819     282.499192      0.100142        15.424932      
155             304.632000      4388.036363     282.641951      0.100139        15.525071      
156             304.632000      4418.541602     282.782880      0.100138        15.625209      
157             304.736000      4449.057865     282.922679      0.100140        15.725349      
158             304.633000      4479.563814     283.060057      0.100140        15.825489      
159             304.666000      4510.073372     283.195916      0.100141        15.925630      
160             304.698000      4540.586439     283.330278      0.100142        16.025772      
161             304.632000      4571.092592     283.462561      0.100141        16.125913      
162             304.599000      4601.596050     283.593009      0.100143        16.226056      
163             304.698000      4632.108812     283.722462      0.100141        16.326197      
164             305.004000      4662.652218     283.852202      0.100141        16.426338      
165             304.801000      4693.174990     283.979139      0.100140        16.526478      
166             304.882000      4723.705569     284.105033      0.100139        16.626617      
167             304.911000      4754.245759     284.229620      0.100161        16.726778      
168             304.852000      4784.773943     284.352349      0.100141        16.826919      
169             304.947000      4815.311336     284.474186      0.100140        16.927059      
170             304.976000      4845.851328     284.594760      0.100139        17.027198      
171             305.042000      4876.411960     284.714364      0.100185        17.127383      
172             304.917000      4906.947263     284.831801      0.100143        17.227526      
173             304.842000      4937.474446     284.947445      0.100141        17.327667      
174             304.978000      4968.014638     285.062540      0.100139        17.427806      
175             304.948000      4998.551826     285.176147      0.100139        17.527945      
176             304.972000      5029.091112     285.288600      0.100138        17.628083      
177             304.972000      5059.630398     285.399781      0.100138        17.728221      
178             304.972000      5090.170294     285.509716      0.100140        17.828361      
179             305.031000      5120.715489     285.618751      0.100138        17.928499      
180             305.062000      5151.264092     285.726747      0.100139        18.028638      
181             305.103000      5181.817107     285.833778      0.100140        18.128778      
182             305.032000      5212.376127     285.939288      0.100183        18.228961      
183             305.032000      5242.922337     286.043601      0.100141        18.329102      
184             304.965000      5273.461837     286.146416      0.100141        18.429243      
185             305.168000      5304.021666     286.249217      0.100141        18.529384      
186             305.102000      5334.573970     286.350555      0.100138        18.629522      
187             305.206000      5365.137299     286.451368      0.100140        18.729662      
188             305.126000      5395.692616     286.550683      0.100140        18.829802      
189             304.965000      5426.232421     286.648097      0.100142        18.929944      
190             305.001000      5456.783761     286.744700      0.100168        19.030112      
191             305.101000      5487.337491     286.840792      0.100143        19.130255      
192             305.167000      5517.897219     286.936224      0.100141        19.230396      
193             305.150000      5548.455246     287.030580      0.100141        19.330537      
194             305.150000      5579.013882     287.123965      0.100143        19.430680      
195             305.025000      5609.560306     287.215752      0.100144        19.530824      
196             305.025000      5640.106119     287.306601      0.100142        19.630966      
197             304.960000      5670.644814     287.396196      0.100140        19.731106      
198             305.129000      5701.200737     287.485741      0.100141        19.831247      
199             305.233000      5731.767380     287.574909      0.100142        19.931389      
200             305.096000      5762.320303     287.662501      0.100142        20.031531      
201             305.064000      5792.870328     287.749063      0.100143        20.131674      
202             305.150000      5823.428659     287.835193      0.100142        20.231816      
203             305.150000      5853.986380     287.920473      0.100140        20.331956      
204             305.185000      5884.548521     288.005090      0.100143        20.432099      
205             305.272000      5915.118459     288.089305      0.100140        20.532239      
206             305.185000      5945.679380     288.172279      0.100139        20.632378      
207             305.061000      5976.228189     288.253853      0.100140        20.732518      
