#timestep       power           acc-energy      avg-power       dt              acc-time       
1               120.532000      12.066097       120.532000      0.100107        0.100107       
2               120.532000      25.130078       120.532000      0.108386        0.208493       
3               120.395000      37.182942       120.487557      0.100111        0.308604       
4               120.332000      49.227574       120.449460      0.100095        0.408699       
5               120.167000      61.258453       120.393881      0.100118        0.508817       
6               120.084000      73.279822       120.342936      0.100108        0.608925       
7               120.063000      85.300290       120.303409      0.100118        0.709043       
8               119.927000      97.306182       120.256839      0.100110        0.809153       
9               119.876000      109.316319      120.214879      0.100188        0.909341       
10              119.790000      121.308136      120.172744      0.100107        1.009448       
11              119.654000      133.287536      120.125937      0.100117        1.109565       
12              119.699000      145.270363      120.090606      0.100108        1.209673       
13              119.639000      157.245150      120.056094      0.100091        1.309764       
14              119.699000      169.229653      120.030735      0.100122        1.409886       
15              119.621000      181.204553      120.003572      0.100107        1.509993       
16              119.628000      193.181469      119.980218      0.100118        1.610111       
17              119.568000      205.151422      119.956088      0.100110        1.710221       
18              119.587000      217.121482      119.935681      0.100095        1.810316       
19              119.555000      229.090970      119.915731      0.100117        1.910433       
20              119.568000      241.060684      119.898417      0.100108        2.010541       
21              125.206000      253.592677      120.150115      0.100091        2.110632       
22              156.647000      269.271476      121.802504      0.100090        2.210722       
23              182.109000      287.499130      124.414656      0.100092        2.310814       
24              211.233000      308.645454      128.019623      0.100109        2.410923       
25              240.684000      332.740089      132.511290      0.100109        2.511032       
26              270.338000      359.798219      137.794488      0.100090        2.611122       
27              299.896000      389.815409      143.778916      0.100092        2.711214       
28              329.117000      422.769236      150.379867      0.100128        2.811342       
29              358.731000      458.689330      157.545452      0.100131        2.911473       
30              415.345000      500.278656      166.116956      0.100132        3.011605       
31              418.036000      542.140781      174.224039      0.100140        3.111745       
32              442.167000      586.415405      182.577224      0.100131        3.211876       
33              443.881000      630.862541      190.477303      0.100133        3.312009       
34              444.537000      675.374475      197.932815      0.100131        3.412140       
35              444.515000      719.884651      204.962671      0.100132        3.512272       
36              444.322000      764.375057      211.597393      0.100131        3.612403       
37              444.473000      808.881028      217.878357      0.100132        3.712535       
38              444.639000      853.403175      223.833710      0.100131        3.812666       
39              445.130000      897.974487      229.496825      0.100131        3.912797       
40              445.054000      942.535964      234.875168      0.100126        4.012923       
41              445.065000      987.101213      239.992223      0.100132        4.113055       
42              445.670000      1031.727041     244.880429      0.100132        4.213187       
43              445.624000      1076.370990     249.542931      0.100183        4.313370       
44              445.624000      1120.992213     253.991550      0.100132        4.413502       
45              445.845000      1165.636010     258.247734      0.100133        4.513635       
46              446.295000      1210.324867     262.328940      0.100133        4.613768       
47              445.944000      1254.978578     266.229303      0.100133        4.713901       
48              445.931000      1299.630987     269.967139      0.100133        4.814034       
49              445.950000      1344.285298     273.553035      0.100133        4.914167       
50              446.190000      1388.963195     277.000473      0.100132        5.014299       
51              445.953000      1433.617361     280.308281      0.100132        5.114431       
52              446.000000      1478.276679     283.489987      0.100133        5.214564       
53              446.023000      1522.937854     286.552204      0.100132        5.314696       
54              446.177000      1567.614003     289.503987      0.100131        5.414827       
55              445.858000      1612.266236     292.343291      0.100149        5.514976       
56              445.888000      1656.914339     295.081420      0.100133        5.615109       
57              445.722000      1701.546266     297.720721      0.100134        5.715243       
58              446.183000      1746.223908     300.277043      0.100133        5.815376       
59              446.277000      1790.911856     302.748462      0.100135        5.915511       
60              446.254000      1835.597054     305.137197      0.100134        6.015645       
61              446.340000      1880.290863     307.449119      0.100134        6.115779       
62              446.532000      1925.004345     309.689668      0.100135        6.215914       
63              446.362000      1969.699465     311.856415      0.100132        6.316046       
64              446.226000      2014.382752     313.953493      0.100136        6.416182       
65              446.314000      2059.073958     315.987432      0.100134        6.516316       
66              446.805000      2103.814330     317.967238      0.100134        6.616450       
67              447.056000      2148.579388     319.891735      0.100133        6.716583       
68              447.129000      2193.352203     321.760784      0.100134        6.816717       
69              447.129000      2238.125466     323.575734      0.100135        6.916852       
70              446.985000      2282.883415     325.336796      0.100133        7.016985       
71              446.647000      2327.608412     327.043581      0.100135        7.117120       
72              446.869000      2372.355193     328.706069      0.100134        7.217254       
73              447.136000      2417.129156     330.326727      0.100135        7.317389       
74              447.202000      2461.908834     331.904487      0.100133        7.417522       
75              447.372000      2506.705982     333.442496      0.100134        7.517656       
76              447.273000      2551.493663     334.938785      0.100135        7.617791       
77              447.143000      2596.267433     336.394532      0.100133        7.717924       
78              446.794000      2641.006704     337.808533      0.100134        7.818058       
79              446.752000      2685.742215     339.186253      0.100135        7.918193       
80              446.812000      2730.484182     340.530325      0.100136        8.018329       
81              446.965000      2775.240575     341.843102      0.100134        8.118463       
82              447.278000      2820.028758     343.127716      0.100135        8.218598       
83              447.181000      2864.806780     344.380223      0.100134        8.318732       
84              447.149000      2909.582045     345.602567      0.100135        8.418867       
85              446.670000      2954.309345     346.790545      0.100135        8.519002       
86              446.670000      2999.066573     347.951687      0.100202        8.619204       
87              446.818000      3043.809140     349.087103      0.100136        8.719340       
88              447.287000      3088.598224     350.202050      0.100135        8.819475       
89              447.398000      3133.398423     351.293209      0.100135        8.919610       
90              447.444000      3178.202333     352.360631      0.100133        9.019743       
91              447.444000      3223.007585     353.404643      0.100136        9.119879       
92              447.276000      3267.795120     354.424134      0.100134        9.220013       
93              447.329000      3312.587515     355.422277      0.100133        9.320146       
94              447.308000      3357.378701     356.398997      0.100135        9.420281       
95              447.299000      3402.168539     357.355067      0.100134        9.520415       
96              447.873000      3447.017198     358.297237      0.100137        9.620552       
97              447.938000      3491.871022     359.220637      0.100134        9.720686       
98              447.977000      3536.729199     360.125615      0.100135        9.820821       
99              448.026000      3581.592730     361.012827      0.100136        9.920957       
100             447.996000      3626.452362     361.881991      0.100134        10.021091      
101             447.865000      3671.298428     362.732652      0.100133        10.121224      
102             447.662000      3716.125062     363.564675      0.100135        10.221359      
103             447.727000      3760.957757     364.381176      0.100134        10.321493      
104             447.967000      3805.814933     365.184301      0.100135        10.421628      
105             448.137000      3850.688235     365.973741      0.100133        10.521761      
106             448.142000      3895.562934     366.748360      0.100135        10.621896      
107             448.065000      3940.429923     367.507791      0.100135        10.722031      
108             447.770000      3985.266924     368.250431      0.100134        10.822165      
109             447.757000      4030.102176     368.979328      0.100133        10.922298      
110             447.757000      4074.938323     369.694996      0.100135        11.022433      
111             447.822000      4119.780083     370.398349      0.100133        11.122566      
112             447.993000      4164.657782     371.090965      0.100175        11.222741      
113             448.454000      4209.563275     371.775126      0.100134        11.322875      
114             448.353000      4254.458654     372.446407      0.100134        11.423009      
115             448.135000      4299.332204     373.104127      0.100134        11.523143      
116             448.181000      4344.210809     373.750917      0.100135        11.623278      
117             448.293000      4389.100180     374.387608      0.100134        11.723412      
118             448.257000      4433.985947     375.013211      0.100134        11.823546      
119             448.333000      4478.879323     375.628944      0.100134        11.923680      
120             448.413000      4523.780262     376.235081      0.100133        12.023813      
121             448.464000      4568.686756     376.831634      0.100134        12.123947      
122             448.491000      4613.596851     377.418646      0.100136        12.224083      
123             448.249000      4658.482713     377.994152      0.100136        12.324219      
124             448.216000      4703.363926     378.560099      0.100133        12.424352      
125             448.546000      4748.278631     379.119641      0.100134        12.524486      
126             448.625000      4793.201247     379.670932      0.100134        12.624620      
127             448.579000      4838.119256     380.213186      0.100134        12.724754      
128             449.020000      4883.102529     380.750665      0.100181        12.824935      
129             448.683000      4928.051592     381.277195      0.100180        12.925115      
130             448.384000      4972.950524     381.793096      0.100135        13.025250      
131             448.379000      5017.850300     382.301102      0.100138        13.125388      
132             448.473000      5062.757695     382.802108      0.100134        13.225522      
133             448.657000      5107.684413     383.296976      0.100136        13.325658      
134             448.963000      5152.640874     383.786735      0.100134        13.425792      
135             448.951000      5197.596582     384.269158      0.100135        13.525927      
136             448.921000      5242.548837     384.744266      0.100134        13.626061      
137             448.584000      5287.467796     385.209988      0.100135        13.726196      
138             448.571000      5332.385453     385.668870      0.100135        13.826331      
139             448.938000      5377.339411     386.123787      0.100134        13.926465      
140             448.807000      5422.285637     386.571328      0.100146        14.026611      
141             449.084000      5467.259154     387.014482      0.100145        14.126756      
142             449.084000      5512.228630     387.451358      0.100136        14.226892      
143             384.191000      5550.699595     387.428571      0.100135        14.327027      
144             351.557000      5585.902756     387.179596      0.100135        14.427162      
145             330.852000      5619.032951     386.791333      0.100136        14.527298      
146             286.386000      5647.710500     386.103981      0.100136        14.627434      
147             254.169000      5673.161967     385.206926      0.100136        14.727570      
148             221.575000      5695.349379     384.101881      0.100135        14.827705      
149             188.935000      5714.268575     382.792701      0.100136        14.927841      
150             182.983000      5732.591394     381.461334      0.100134        15.027975      
151             153.620000      5747.974440     379.953192      0.100137        15.128112      
152             123.889000      5760.380065     378.269414      0.100135        15.228247      
153             123.633000      5772.759932     376.605979      0.100134        15.328381      
154             123.426000      5785.118948     374.962809      0.100133        15.428514      
155             123.323000      5797.467896     373.340134      0.100135        15.528649      
156             123.301000      5809.814765     371.738095      0.100136        15.628785      
157             123.211000      5822.152992     370.155835      0.100139        15.728924      
158             123.163000      5834.486165     368.593321      0.100137        15.829061      
159             123.139000      5846.816689     367.050333      0.100135        15.929196      
160             123.054000      5859.138701     365.526091      0.100135        16.029331      
161             122.976000      5871.453272     364.020246      0.100138        16.129469      
