#timestep       power           acc-energy      avg-power       dt              acc-time       
1               122.300000      12.243698       122.300000      0.100112        0.100112       
2               122.300000      25.290662       122.300000      0.106680        0.206792       
3               122.175000      37.525877       122.259216      0.100145        0.306937       
4               122.085000      49.753544       122.216354      0.100157        0.407094       
5               121.965000      61.970900       122.166718      0.100171        0.507265       
6               121.821000      74.179314       122.109685      0.100216        0.607481       
7               121.756000      86.385231       122.059586      0.100249        0.707730       
8               121.607000      98.567455       122.003467      0.100177        0.807907       
9               121.487000      110.734500      121.946505      0.100151        0.908058       
10              121.302000      122.886049      121.882469      0.100176        1.008234       
11              121.183000      135.023617      121.819262      0.100159        1.108393       
12              121.063000      147.146261      121.756600      0.100135        1.208528       
13              120.960000      159.262945      121.695627      0.100171        1.308699       
14              120.960000      171.379024      121.643326      0.100166        1.408865       
15              120.960000      183.496071      121.597965      0.100174        1.509039       
16              120.943000      195.611536      121.557193      0.100175        1.609214       
17              120.943000      207.725792      121.521203      0.100165        1.709379       
18              120.960000      219.841992      121.490137      0.100167        1.809546       
19              120.980000      231.956808      121.463387      0.100139        1.909685       
20              120.947000      244.068925      121.437657      0.100144        2.009829       
21              120.932000      256.177967      121.413660      0.100131        2.109960       
22              150.158000      271.209533      122.715637      0.100105        2.210065       
23              177.276000      288.954684      125.079728      0.100099        2.310164       
24              216.058000      310.580793      128.857904      0.100094        2.410258       
25              236.971000      334.299458      133.168519      0.100091        2.510349       
26              267.021000      361.025322      138.300669      0.100089        2.610438       
27              314.698000      392.523131      144.814322      0.100089        2.710527       
28              347.815000      427.335586      152.043391      0.100089        2.810616       
29              380.781000      465.447956      159.908956      0.100090        2.910706       
30              387.128000      504.195211      167.462484      0.100089        3.010795       
31              446.943000      548.928842      176.454351      0.100088        3.110883       
32              447.278000      593.696897      184.896259      0.100090        3.210973       
33              451.316000      638.868213      192.949696      0.100088        3.311061       
34              451.343000      684.042682      200.531399      0.100089        3.411150       
35              451.624000      729.244825      207.688805      0.100088        3.511238       
36              451.322000      774.425316      214.442352      0.100107        3.611345       
37              451.259000      819.591379      220.828763      0.100089        3.711434       
38              451.259000      864.757441      226.879764      0.100089        3.811523       
39              451.426000      909.940217      232.625377      0.100089        3.911612       
40              451.412000      955.121593      238.083943      0.100089        4.011701       
41              451.426000      1000.304821     243.277156      0.100090        4.111791       
42              451.536000      1045.498608     248.226115      0.100089        4.211880       
43              451.287000      1090.680109     252.940832      0.100117        4.311997       
44              451.441000      1135.864387     257.443846      0.100089        4.412086       
45              451.505000      1181.055071     261.748507      0.100089        4.512175       
46              451.927000      1226.287992     265.875499      0.100089        4.612264       
47              452.162000      1271.543983     269.832131      0.100088        4.712352       
48              452.146000      1316.798824     273.623889      0.100089        4.812441       
49              452.365000      1362.076037     277.265637      0.100090        4.912531       
50              452.442000      1407.360504     280.763454      0.100089        5.012620       
51              452.520000      1452.652778     284.125848      0.100089        5.112709       
52              452.425000      1497.935544     287.357297      0.100089        5.212798       
53              452.404000      1543.216208     290.466597      0.100089        5.312887       
54              452.301000      1588.486563     293.459007      0.100089        5.412976       
55              452.117000      1633.738501     296.339423      0.100089        5.513065       
56              452.087000      1678.987437     299.116582      0.100089        5.613154       
57              452.087000      1724.236373     301.796436      0.100089        5.713243       
58              452.031000      1769.487840     304.383503      0.100107        5.813350       
59              452.057000      1814.753211     306.884034      0.100132        5.913482       
60              451.993000      1860.027994     309.301057      0.100167        6.013649       
61              452.207000      1905.308386     311.641582      0.100132        6.113781       
62              452.371000      1950.604746     313.909297      0.100131        6.213912       
63              452.409000      1995.905817     316.105732      0.100133        6.314045       
64              452.612000      2041.226309     318.236716      0.100131        6.414176       
65              452.683000      2086.554363     320.303302      0.100132        6.514308       
66              452.951000      2131.934618     322.312481      0.100188        6.614496       
67              452.953000      2177.299673     324.261082      0.100154        6.714650       
68              453.326000      2222.692565     326.157497      0.100133        6.814783       
69              453.323000      2268.084250     327.998909      0.100131        6.914914       
70              453.186000      2313.462671     329.785816      0.100132        7.015046       
71              452.918000      2358.823314     331.518998      0.100152        7.115198       
72              452.799000      2404.163437     333.202099      0.100133        7.215331       
73              452.735000      2449.503489     334.838474      0.100147        7.315478       
74              452.794000      2494.842657     336.431212      0.100132        7.415610       
75              452.734000      2540.175818     337.980710      0.100132        7.515742       
76              452.573000      2585.492858     339.487347      0.100132        7.615874       
77              452.573000      2630.809445     340.954865      0.100131        7.716005       
78              452.370000      2676.106610     342.382211      0.100133        7.816138       
79              452.611000      2721.427455     343.776482      0.100132        7.916270       
80              452.769000      2766.764120     345.137896      0.100132        8.016402       
81              452.957000      2812.133199     346.468432      0.100162        8.116564       
82              453.016000      2857.494144     347.766851      0.100131        8.216695       
83              453.294000      2902.883833     349.037377      0.100133        8.316828       
84              453.265000      2948.269710     350.277304      0.100131        8.416959       
85              453.634000      2993.693444     351.492439      0.100133        8.517092       
86              453.668000      3039.141904     352.680280      0.100180        8.617272       
87              453.973000      3084.599128     353.843774      0.100132        8.717404       
88              453.604000      3130.019858     354.976663      0.100133        8.817537       
89              453.509000      3175.430621     356.083033      0.100132        8.917669       
90              453.289000      3220.821168     357.162432      0.100136        9.017805       
91              453.260000      3266.206998     358.217763      0.100132        9.117937       
92              453.388000      3311.605646     359.251558      0.100132        9.218069       
93              453.322000      3356.997231     360.262415      0.100131        9.318200       
94              453.355000      3402.392574     361.252138      0.100132        9.418332       
95              453.385000      3447.790921     362.221354      0.100132        9.518464       
96              453.185000      3493.169241     363.168309      0.100132        9.618596       
97              453.415000      3538.570592     364.098120      0.100132        9.718728       
98              453.798000      3584.010293     365.012872      0.100132        9.818860       
99              453.864000      3629.456603     365.909823      0.100132        9.918992       
100             453.997000      3674.916231     366.790174      0.100132        10.019124      
101             454.027000      3720.379316     367.653407      0.100133        10.119257      
102             454.240000      3765.864184     368.501820      0.100134        10.219391      
103             454.240000      3811.348598     369.333760      0.100133        10.319524      
104             454.483000      3856.857345     370.152045      0.100133        10.419657      
105             454.602000      3902.377552     370.955877      0.100132        10.519789      
106             454.497000      3947.887700     371.743568      0.100133        10.619922      
107             454.299000      3993.378022     372.514695      0.100133        10.720055      
108             454.020000      4038.843131     373.269013      0.100139        10.820194      
109             453.961000      4084.300062     374.008918      0.100134        10.920328      
110             453.825000      4129.742920     374.734135      0.100133        11.020461      
111             453.995000      4175.203710     375.447837      0.100135        11.120596      
112             453.930000      4220.657536     376.148213      0.100134        11.220730      
113             453.930000      4266.110909     376.836193      0.100133        11.320863      
114             453.826000      4311.553414     377.511190      0.100132        11.420995      
115             453.932000      4357.006987     378.175382      0.100133        11.521128      
116             454.022000      4402.470026     378.828911      0.100134        11.621262      
117             454.394000      4447.969860     379.474445      0.100133        11.721395      
118             454.359000      4493.465736     380.108740      0.100132        11.821527      
119             454.638000      4538.990457     380.734736      0.100134        11.921661      
120             454.738000      4584.524737     381.351131      0.100133        12.021794      
121             454.980000      4630.083250     381.959341      0.100133        12.121927      
122             454.978000      4675.642017     382.557575      0.100134        12.222061      
123             454.920000      4721.194521     383.145609      0.100133        12.322194      
124             454.814000      4766.735956     383.723302      0.100132        12.422326      
125             454.716000      4812.268034     384.290979      0.100133        12.522459      
126             454.617000      4857.814747     384.849163      0.100187        12.622646      
127             454.519000      4903.327553     385.397496      0.100134        12.722780      
128             454.562000      4948.845118     385.937606      0.100135        12.822915      
129             454.514000      4994.378786     386.469216      0.100181        12.923096      
130             454.557000      5039.894942     386.992730      0.100133        13.023229      
131             454.742000      5085.429622     387.509666      0.100133        13.123362      
132             454.588000      5130.964338     388.017778      0.100167        13.223529      
133             454.743000      5176.499119     388.519246      0.100133        13.323662      
134             454.802000      5222.039353     389.013669      0.100132        13.423794      
135             454.862000      5267.586050     389.501219      0.100133        13.523927      
136             455.106000      5313.157179     389.983395      0.100133        13.624060      
137             455.195000      5358.737675     390.459190      0.100134        13.724194      
138             455.521000      5404.350815     390.930454      0.100134        13.824328      
139             455.474000      5449.958793     391.394596      0.100133        13.924461      
140             455.626000      5495.581991     391.853197      0.100133        14.024594      
141             455.390000      5541.182013     392.303626      0.100134        14.124728      
142             455.265000      5586.768608     392.746826      0.100132        14.224860      
143             455.199000      5632.349050     393.183372      0.100133        14.324993      
144             455.181000      5677.927689     393.613733      0.100133        14.425126      
145             455.229000      5723.511590     394.038495      0.100134        14.525260      
146             455.229000      5769.101408     394.457495      0.100147        14.625407      
147             455.116000      5814.673539     394.869970      0.100133        14.725540      
148             455.170000      5860.251531     395.277242      0.100134        14.825674      
149             455.018000      5905.813849     395.678026      0.100133        14.925807      
150             455.253000      5951.399698     396.075034      0.100133        15.025940      
151             455.521000      5997.012382     396.468560      0.100133        15.126073      
152             455.503000      6042.623719     396.856796      0.100134        15.226207      
153             455.756000      6088.260391     397.241611      0.100134        15.326341      
154             455.724000      6133.893402     397.621219      0.100133        15.426474      
155             455.893000      6179.543791     397.997025      0.100134        15.526608      
156             456.128000      6225.217256     398.369516      0.100133        15.626741      
157             456.303000      6270.908245     398.738379      0.100133        15.726874      
158             456.297000      6316.598632     399.102536      0.100133        15.827007      
159             456.119000      6362.271196     399.460995      0.100133        15.927140      
160             456.084000      6407.940255     399.814757      0.100133        16.027273      
161             455.746000      6453.575470     400.162027      0.100133        16.127406      
162             455.746000      6499.210684     400.505011      0.100133        16.227539      
163             455.811000      6544.852407     400.844187      0.100133        16.327672      
164             455.746000      6590.488077     401.178835      0.100134        16.427806      
165             455.811000      6636.129799     401.509819      0.100133        16.527939      
166             455.687000      6681.758650     401.836067      0.100132        16.628071      
167             455.554000      6727.374639     402.157616      0.100133        16.728204      
168             455.688000      6773.003590     402.476132      0.100132        16.828336      
169             455.901000      6818.654780     402.792147      0.100134        16.928470      
170             456.055000      6864.320480     403.105345      0.100132        17.028602      
171             456.055000      6910.005789     403.415013      0.100175        17.128777      
172             456.226000      6955.689067     403.721946      0.100133        17.228910      
173             455.958000      7001.345510     404.023783      0.100133        17.329043      
174             455.900000      7046.996600     404.321822      0.100134        17.429177      
175             456.160000      7092.672813     404.617935      0.100132        17.529309      
176             456.149000      7138.348381     404.910625      0.100133        17.629442      
177             456.330000      7184.042073     405.201031      0.100133        17.729575      
178             456.056000      7229.707873     405.486634      0.100132        17.829707      
179             455.821000      7275.350597     405.767737      0.100133        17.929840      
180             455.618000      7320.972994     406.044590      0.100133        18.029973      
181             455.716000      7366.605204     406.318926      0.100133        18.130106      
182             455.958000      7412.261647     406.591578      0.100133        18.230239      
183             456.062000      7457.933519     406.861849      0.100144        18.330383      
184             456.089000      7503.603079     407.129300      0.100133        18.430516      
185             455.991000      7549.262826     407.393331      0.100133        18.530649      
186             456.149000      7594.938394     407.655373      0.100133        18.630782      
187             456.148000      7640.613862     407.914609      0.100133        18.730915      
188             456.213000      7686.312718     408.171527      0.100170        18.831085      
189             456.368000      7732.010215     408.426453      0.100133        18.931218      
190             456.368000      7777.707712     408.678696      0.100133        19.031351      
191             456.796000      7823.456745     408.930587      0.100152        19.131503      
192             456.796000      7869.197099     409.179807      0.100133        19.231636      
193             457.178000      7914.975703     409.428423      0.100133        19.331769      
194             457.045000      7960.740990     409.673793      0.100133        19.431902      
195             457.045000      8006.505820     409.916644      0.100132        19.532034      
196             456.845000      8052.251537     410.156002      0.100134        19.632168      
197             456.742000      8097.986941     410.392408      0.100134        19.732302      
198             456.774000      8143.725092     410.626587      0.100133        19.832435      
199             456.675000      8189.453330     410.857915      0.100133        19.932568      
200             456.706000      8235.184671     411.087086      0.100133        20.032701      
201             456.766000      8280.922021     411.314275      0.100133        20.132834      
202             456.646000      8326.648269     411.538626      0.100135        20.232969      
203             456.831000      8372.401721     411.761721      0.100154        20.333123      
204             456.677000      8418.130159     411.981828      0.100133        20.433256      
205             456.796000      8463.872796     412.200379      0.100138        20.533394      
206             457.009000      8509.634936     412.417834      0.100134        20.633528      
207             457.074000      8555.403126     412.633501      0.100133        20.733661      
