#timestep       power           acc-energy      avg-power       dt              acc-time       
1               122.294000      12.245787       122.294000      0.100134        0.100134       
2               122.264000      24.765499       122.278832      0.102399        0.202533       
3               122.264000      37.268338       122.273856      0.102261        0.304794       
4               122.264000      49.772766       122.271380      0.102274        0.407068       
5               122.176000      62.265262       122.252231      0.102250        0.509318       
6               122.116000      74.750280       122.229456      0.102239        0.611557       
7               122.057000      87.216205       122.204777      0.102132        0.713689       
8               122.027000      99.693832       122.182498      0.102253        0.815942       
9               122.035000      112.167762      122.166078      0.102216        0.918158       
10              122.100000      124.631241      122.159467      0.102076        1.020234       
11              122.085000      137.105642      122.152688      0.102178        1.122412       
12              122.027000      149.576070      122.142199      0.102194        1.224606       
13              138.336000      163.713179      123.389493      0.102194        1.326800       
14              154.657000      179.518660      125.625638      0.102197        1.428997       
15              171.105000      197.005078      128.661083      0.102197        1.531194       
16              186.729000      216.090276      132.294607      0.102208        1.633402       
17              202.375000      236.775834      136.421786      0.102214        1.735616       
18              210.078000      258.248326      140.518224      0.102212        1.837828       
19              225.039000      281.267791      144.974504      0.102291        1.940119       
20              240.010000      305.834974      149.737218      0.102359        2.042478       
21              267.424000      333.201274      155.352278      0.102333        2.144811       
22              283.144000      362.195220      161.175439      0.102400        2.247211       
23              283.479000      391.206461      166.502647      0.102340        2.349551       
24              283.695000      420.432152      171.425209      0.103018        2.452569       
25              283.317000      450.027163      175.996181      0.104459        2.557028       
26              283.243000      479.012552      180.123109      0.102334        2.659362       
27              283.658000      508.047501      183.960473      0.102359        2.761721       
28              283.657000      537.085468      187.523884      0.102370        2.864091       
29              283.307000      566.075707      190.827967      0.102328        2.966419       
30              282.579000      595.000211      193.888320      0.102359        3.068778       
31              283.188000      623.980538      196.770138      0.102336        3.171114       
32              283.528000      653.033369      199.485814      0.102469        3.273583       
33              283.740000      682.086642      202.041259      0.102394        3.375977       
34              282.890000      711.048355      204.420870      0.102378        3.478355       
35              282.550000      739.960566      206.653585      0.102326        3.580681       
36              283.226000      768.948464      208.781483      0.102349        3.683030       
37              283.123000      797.917043      210.790935      0.102318        3.785348       
38              283.026000      826.888433      212.692876      0.102363        3.887711       
39              282.929000      855.846782      214.494554      0.102352        3.990063       
40              282.929000      885.420502      216.241553      0.104527        4.094590       
41              283.042000      914.389285      217.870572      0.102348        4.196938       
42              282.953000      943.381781      219.421627      0.102464        4.299402       
43              282.495000      972.303336      220.888621      0.102379        4.401781       
44              282.161000      1001.187594     222.281189      0.102368        4.504149       
45              282.161000      1030.068747     223.611724      0.102357        4.606506       
46              282.332000      1058.968533     224.888181      0.102361        4.708867       
47              282.199000      1087.828743     226.106421      0.102269        4.811136       
48              282.031000      1116.695179     227.271376      0.102352        4.913488       
49              281.799000      1145.534771     228.383936      0.102341        5.015829       
50              281.829000      1174.995202     229.475026      0.104533        5.120362       
51              282.130000      1203.865283     230.506703      0.102329        5.222691       
52              282.163000      1232.763006     231.500182      0.102415        5.325106       
53              281.828000      1261.583583     232.448463      0.102263        5.427369       
54              281.585000      1290.378183     233.357141      0.102259        5.529628       
55              282.164000      1319.232556     234.243352      0.102261        5.631889       
56              282.283000      1348.120269     235.100693      0.102336        5.734225       
57              282.249000      1377.013817     235.927635      0.102369        5.836594       
58              281.824000      1405.865831     236.718797      0.102376        5.938970       
59              281.397000      1434.670472     237.475814      0.102363        6.041333       
60              282.021000      1464.430456     238.240528      0.105524        6.146857       
61              282.188000      1493.318042     238.960441      0.102370        6.249227       
62              281.956000      1522.172291     239.653183      0.102336        6.351563       
63              281.853000      1551.028401     240.322606      0.102380        6.453943       
64              281.637000      1579.851132     240.967501      0.102340        6.556283       
65              282.156000      1608.733748     241.600696      0.102364        6.658647       
66              282.226000      1637.622120     242.215747      0.102359        6.761006       
67              281.976000      1666.475314     242.808530      0.102325        6.863331       
68              282.226000      1695.361145     243.387710      0.102350        6.965681       
69              282.339000      1724.260518     243.951789      0.102357        7.068038       
70              282.188000      1753.124964     244.497247      0.102288        7.170326       
71              282.118000      1782.001998     245.026733      0.102358        7.272684       
72              281.907000      1810.847568     245.538420      0.102323        7.375007       
73              282.118000      1839.728552     246.039227      0.102372        7.477379       
74              282.150000      1868.607451     246.526850      0.102353        7.579732       
75              282.150000      1897.488607     247.001515      0.102361        7.682093       
76              282.150000      1926.356220     247.463483      0.102313        7.784406       
77              282.183000      1955.222412     247.913819      0.102296        7.886702       
78              282.286000      1984.116643     248.354205      0.102358        7.989060       
79              282.356000      2013.629904     248.793323      0.104525        8.093585       
80              282.426000      2042.550891     249.213535      0.102402        8.195987       
81              282.280000      2071.446765     249.621433      0.102366        8.298353       
82              282.128000      2100.327362     250.017542      0.102367        8.400720       
83              282.221000      2129.219455     250.405259      0.102374        8.503094       
84              282.620000      2158.139677     250.788332      0.102329        8.605423       
85              282.361000      2187.046102     251.159519      0.102374        8.707797       
86              282.128000      2215.953219     251.519674      0.102461        8.810258       
87              281.701000      2244.786161     251.866278      0.102353        8.912611       
88              282.189000      2273.674132     252.210612      0.102371        9.014982       
89              282.189000      2303.175298     252.554277      0.104544        9.119526       
90              282.222000      2332.077089     252.883732      0.102408        9.221934       
91              281.972000      2360.941153     253.203072      0.102365        9.324299       
92              282.119000      2389.827317     253.517149      0.102390        9.426689       
93              282.306000      2418.723030     253.826383      0.102356        9.529045       
94              282.369000      2447.626321     254.129727      0.102360        9.631405       
95              282.398000      2476.532580     254.426995      0.102360        9.733765       
96              282.290000      2505.432584     254.717000      0.102377        9.836142       
97              282.323000      2534.407958     255.002071      0.102632        9.938774       
98              282.427000      2563.309277     255.281567      0.102332        10.041106      
99              282.461000      2592.993669     255.563086      0.105092        10.146198      
100             282.432000      2621.899454     255.831409      0.102346        10.248544      
101             281.975000      2650.757058     256.089895      0.102341        10.350885      
102             282.004000      2679.612271     256.343558      0.102322        10.453207      
103             282.225000      2708.498000     256.594512      0.102350        10.555557      
104             282.091000      2737.362115     256.839294      0.102322        10.657879      
105             281.882000      2766.203436     257.077421      0.102317        10.760196      
106             282.099000      2795.070909     257.313138      0.102331        10.862527      
107             282.399000      2823.974164     257.547296      0.102349        10.964876      
108             282.431000      2852.872504     257.777354      0.102320        11.067196      
109             282.096000      2883.125325     258.010744      0.107243        11.174439      
110             282.128000      2912.030749     258.229859      0.102455        11.276894      
111             282.192000      2940.906328     258.445335      0.102326        11.379220      
112             282.361000      2969.809647     258.658553      0.102363        11.481583      
113             282.462000      2998.719350     258.868867      0.102349        11.583932      
114             282.020000      3027.578739     259.071590      0.102331        11.686263      
115             281.818000      3056.426757     259.269104      0.102364        11.788627      
116             282.187000      3085.303517     259.466332      0.102332        11.890959      
117             282.398000      3114.221072     259.662124      0.102400        11.993359      
118             282.188000      3143.935468     259.858177      0.105300        12.098659      
119             282.118000      3172.836765     260.045077      0.102444        12.201103      
120             282.147000      3201.717614     260.228958      0.102361        12.303464      
121             282.250000      3230.609288     260.410656      0.102362        12.405826      
122             282.287000      3259.515477     260.589749      0.102400        12.508226      
123             282.387000      3288.420328     260.766676      0.102359        12.610585      
124             282.181000      3317.306633     260.939109      0.102368        12.712953      
125             282.387000      3346.211201     261.110417      0.102358        12.815311      
126             282.486000      3375.133813     261.279841      0.102386        12.917697      
127             282.451000      3404.044932     261.446279      0.102358        13.020055      
128             282.392000      3432.950577     261.609664      0.102360        13.122415      
129             282.023000      3461.852012     261.767846      0.102479        13.224894      
130             282.278000      3490.745988     261.925374      0.102360        13.327254      
131             282.451000      3519.666994     262.081870      0.102393        13.429647      
132             282.310000      3548.563681     262.234878      0.102358        13.532005      
133             282.011000      3577.427506     262.383333      0.102350        13.634355      
134             282.040000      3606.298813     262.529814      0.102366        13.736721      
135             282.273000      3635.191430     262.675839      0.102357        13.839078      
136             282.310000      3664.089247     262.819999      0.102362        13.941440      
137             282.480000      3693.001922     262.963284      0.102353        14.043793      
138             282.045000      3721.859638     263.101298      0.102316        14.146109      
139             281.811000      3750.706658     263.235711      0.102363        14.248472      
140             282.116000      3779.595336     263.370430      0.102400        14.350872      
141             282.217000      3808.488148     263.503928      0.102378        14.453250      
142             282.332000      3837.409109     263.636431      0.102436        14.555686      
143             281.811000      3866.253028     263.763338      0.102352        14.658038      
144             282.153000      3895.134209     263.890866      0.102360        14.760398      
145             282.305000      3924.129191     264.018112      0.102708        14.863106      
146             282.118000      3953.446330     264.143782      0.103918        14.967024      
147             281.937000      3982.309630     264.264662      0.102375        15.069399      
148             282.183000      4011.190214     264.385537      0.102347        15.171746      
149             282.318000      4040.061746     264.505602      0.102266        15.274012      
150             282.458000      4068.967933     264.625085      0.102338        15.376350      
151             282.429000      4098.022534     264.743409      0.102874        15.479224      
152             282.407000      4128.933957     264.867435      0.109457        15.588681      
153             282.906000      4157.894761     264.985120      0.102369        15.691050      
154             283.174000      4186.883567     265.103018      0.102371        15.793421      
155             283.354000      4215.890516     265.220555      0.102370        15.895791      
156             283.600000      4244.907901     265.338103      0.102318        15.998109      
157             283.813000      4274.608647     265.458169      0.104649        16.102758      
158             284.139000      4303.698230     265.576187      0.102378        16.205136      
159             284.352000      4332.857674     265.694254      0.102547        16.307683      
160             284.601000      4361.998825     265.812226      0.102393        16.410076      
161             284.526000      4391.117215     265.928209      0.102340        16.512416      
162             284.618000      4420.249575     266.043348      0.102356        16.614772      
163             284.948000      4449.406310     266.159061      0.102323        16.717095      
164             285.012000      4478.577858     266.273788      0.102352        16.819447      
165             285.077000      4507.758910     266.387530      0.102362        16.921809      
166             284.842000      4536.908501     266.498464      0.102336        17.024145      
167             284.233000      4565.994063     266.604428      0.102330        17.126475      
168             284.576000      4595.116148     266.711174      0.102335        17.228810      
169             284.720000      4624.278025     266.817602      0.102423        17.331233      
170             284.512000      4653.389862     266.921455      0.102322        17.433555      
171             284.356000      4682.499386     267.023233      0.102370        17.535925      
172             284.447000      4711.615096     267.124347      0.102359        17.638284      
173             284.517000      4740.738541     267.224700      0.102361        17.740645      
174             284.668000      4769.874880     267.324759      0.102352        17.842997      
175             284.423000      4798.990125     267.422293      0.102366        17.945363      
176             284.452000      4828.104071     267.518871      0.102351        18.047714      
177             284.787000      4858.069075     267.618961      0.105219        18.152933      
178             284.970000      4887.244588     267.716271      0.102381        18.255314      
179             285.093000      4916.426138     267.813159      0.102358        18.357672      
180             284.923000      4945.608236     267.908089      0.102421        18.460093      
181             284.700000      4974.760662     268.000719      0.102397        18.562490      
182             284.941000      5003.919814     268.093598      0.102334        18.664824      
183             284.818000      5033.362590     268.185714      0.103374        18.768198      
184             284.683000      5062.504735     268.275207      0.102367        18.870565      
185             284.715000      5091.650155     268.363907      0.102367        18.972932      
186             284.850000      5120.807116     268.452372      0.102359        19.075291      
187             284.788000      5149.938366     268.539504      0.102291        19.177582      
188             284.756000      5179.094817     268.625626      0.102391        19.279973      
189             284.637000      5208.220014     268.710154      0.102324        19.382297      
190             284.302000      5237.318323     268.792056      0.102350        19.484647      
191             284.853000      5266.462773     268.875951      0.102314        19.586961      
192             285.003000      5295.627130     268.959768      0.102330        19.689291      
193             285.067000      5324.803168     269.043062      0.102348        19.791639      
194             284.723000      5353.954247     269.123759      0.102384        19.894023      
195             284.521000      5383.076110     269.202572      0.102354        19.996377      
196             284.791000      5412.844459     269.283633      0.104527        20.100904      
197             284.888000      5441.997617     269.362671      0.102332        20.203236      
198             284.915000      5471.162087     269.441072      0.102362        20.305598      
199             284.726000      5500.296105     269.517709      0.102323        20.407921      
200             284.729000      5529.440396     269.593622      0.102358        20.510279      
201             284.861000      5558.596774     269.669433      0.102353        20.612632      
202             284.890000      5587.760393     269.744648      0.102368        20.715000      
203             284.859000      5616.917706     269.818964      0.102357        20.817357      
204             284.497000      5646.017482     269.890731      0.102285        20.919642      
205             284.729000      5675.167467     269.962994      0.102378        21.022020      
206             284.917000      5704.960098     270.037009      0.104566        21.126586      
207             284.894000      5734.121848     270.108645      0.102360        21.228946      
