#timestep       power           acc-energy      avg-power       dt              acc-time       
1               136.677000      13.684785       136.677000      0.100125        0.100125       
2               136.732000      28.887195       136.705939      0.111184        0.211309       
3               136.642000      42.567929       136.685384      0.100121        0.311430       
4               136.673000      56.253407       136.682371      0.100133        0.411563       
5               136.588000      69.928460       136.663905      0.100119        0.511682       
6               136.558000      83.606793       136.646568      0.100165        0.611847       
7               136.576000      97.286791       136.636640      0.100164        0.712011       
8               136.498000      110.953107      136.619549      0.100121        0.812132       
9               136.513000      124.632529      136.607846      0.100206        0.912338       
10              136.484000      138.298945      136.595598      0.100132        1.012470       
11              133.421000      151.659190      136.309880      0.100136        1.112606       
12              133.267000      165.002149      136.058662      0.100122        1.212728       
13              145.429000      179.562791      136.773273      0.100122        1.312850       
14              166.447000      196.227631      138.875908      0.100121        1.412971       
15              191.749000      215.426308      142.374608      0.100124        1.513095       
16              208.628000      236.324992      146.488456      0.100172        1.613267       
17              232.016000      259.555130      151.486311      0.100123        1.713390       
18              252.808000      284.866520      157.080117      0.100121        1.813511       
19              273.621000      312.262001      163.177580      0.100122        1.913633       
20              293.430000      341.639920      169.653423      0.100119        2.013752       
21              318.953000      373.573175      176.724680      0.100119        2.113871       
22              340.168000      407.630115      184.115691      0.100118        2.213989       
23              344.514000      442.122857      191.055329      0.100120        2.314109       
24              344.462000      476.614870      197.418018      0.100133        2.414242       
25              344.462000      511.118940      203.275894      0.100168        2.514410       
26              344.318000      545.607896      208.679303      0.100166        2.614576       
27              344.072000      580.055697      213.672590      0.100118        2.714694       
28              343.866000      614.483561      218.303433      0.100120        2.814814       
29              343.658000      648.889569      222.608895      0.100117        2.914931       
30              343.658000      683.306574      226.629666      0.100149        3.015080       
31              343.418000      717.688554      230.383040      0.100117        3.115197       
32              343.198000      752.048851      233.895855      0.100118        3.215315       
33              343.124000      786.403112      237.194407      0.100122        3.315437       
34              343.388000      820.783119      240.307253      0.100120        3.415557       
35              343.376000      855.162267      243.242489      0.100121        3.515678       
36              343.407000      889.550014      246.016462      0.100137        3.615815       
37              343.467000      923.938617      248.642164      0.100122        3.715937       
38              343.505000      958.332399      251.131179      0.100126        3.816063       
39              343.576000      992.731228      253.494596      0.100120        3.916183       
40              343.577000      1027.130157     255.740206      0.100120        4.016303       
41              343.594000      1061.532163     257.877077      0.100124        4.116427       
42              343.628000      1095.937229     259.913253      0.100123        4.216550       
43              343.671000      1130.368252     261.857165      0.100186        4.316736       
44              343.545000      1164.764664     263.708877      0.100122        4.416858       
45              343.558000      1199.164096     265.478875      0.100127        4.516985       
46              343.605000      1233.569608     267.173190      0.100131        4.617116       
47              343.622000      1267.977166     268.795952      0.100132        4.717248       
48              343.648000      1302.386641     270.351764      0.100130        4.817378       
49              343.623000      1336.794299     271.843738      0.100132        4.917510       
50              343.664000      1371.195409     273.276547      0.100101        5.017611       
51              343.697000      1405.607384     274.654248      0.100123        5.117734       
52              343.743000      1440.025339     275.980012      0.100127        5.217861       
53              343.797000      1474.449389     277.256894      0.100129        5.317990       
54              344.037000      1508.897470     278.491017      0.100129        5.418119       
55              344.041000      1543.344231     279.680368      0.100124        5.518243       
56              344.059000      1577.792794     280.827649      0.100124        5.618367       
57              344.084000      1612.244205     281.935203      0.100125        5.718492       
58              344.085000      1646.696059     283.004669      0.100126        5.818618       
59              344.085000      1681.146882     284.037920      0.100123        5.918741       
60              344.119000      1715.631391     285.038224      0.100211        6.018952       
61              344.119000      1750.085273     286.004921      0.100122        6.119074       
62              343.804000      1784.507961     286.935429      0.100123        6.219197       
63              343.789000      1818.928804     287.836206      0.100122        6.319319       
64              343.789000      1853.350333     288.708901      0.100124        6.419443       
65              343.835000      1887.783689     289.555673      0.100145        6.519588       
66              343.883000      1922.217038     290.377437      0.100131        6.619719       
67              343.894000      1956.650800     291.174860      0.100129        6.719848       
68              343.934000      1991.088912     291.949463      0.100130        6.819978       
69              343.840000      2025.518643     292.700311      0.100133        6.920111       
70              343.875000      2059.949471     293.430189      0.100126        7.020237       
71              343.936000      2094.388470     294.140440      0.100132        7.120369       
72              344.022000      2128.835737     294.832177      0.100131        7.220500       
73              344.283000      2163.308450     295.508548      0.100129        7.320629       
74              344.161000      2197.761031     296.164872      0.100106        7.420735       
75              344.188000      2232.224231     296.804228      0.100129        7.520864       
76              344.229000      2266.690848     297.427309      0.100127        7.620991       
77              344.249000      2301.150862     298.034341      0.100102        7.721093       
78              344.311000      2335.641183     298.627036      0.100172        7.821265       
79              344.311000      2370.123241     299.204604      0.100148        7.921413       
80              344.316000      2404.590994     299.767574      0.100105        8.021518       
81              344.333000      2439.093161     300.317391      0.100200        8.121718       
82              344.344000      2473.564061     300.853443      0.100106        8.221824       
83              344.347000      2508.042149     301.376739      0.100126        8.321950       
84              344.516000      2542.537158     301.889600      0.100126        8.422076       
85              344.533000      2577.034214     302.390616      0.100127        8.522203       
86              343.783000      2611.486083     302.871699      0.100214        8.622417       
87              343.762000      2645.905597     303.341078      0.100126        8.722543       
88              343.831000      2680.331332     303.800578      0.100124        8.822667       
89              343.894000      2714.774380     304.250614      0.100156        8.922823       
90              343.912000      2749.207881     304.690716      0.100123        9.022946       
91              343.912000      2783.641726     305.121163      0.100124        9.123070       
92              343.907000      2818.075414     305.542213      0.100125        9.223195       
93              343.946000      2852.514040     305.954652      0.100128        9.323323       
94              343.949000      2886.953997     306.358369      0.100131        9.423454       
95              343.903000      2921.387285     306.753090      0.100125        9.523579       
96              343.815000      2955.818638     307.138758      0.100145        9.623724       
97              344.599000      2990.321613     307.524481      0.100125        9.723849       
98              344.643000      3024.828649     307.902785      0.100124        9.823973       
99              344.665000      3059.338232     308.273682      0.100125        9.924098       
100             344.394000      3093.819992     308.634456      0.100123        10.024221      
101             344.403000      3128.303342     308.988190      0.100125        10.124346      
102             344.390000      3162.785047     309.334865      0.100124        10.224470      
103             344.406000      3197.261809     309.674908      0.100105        10.324575      
104             344.433000      3231.748164     310.008745      0.100125        10.424700      
105             344.494000      3266.233391     310.336743      0.100104        10.524804      
106             344.621000      3300.740636     310.659843      0.100131        10.624935      
107             344.630000      3335.247749     310.976984      0.100128        10.725063      
108             344.623000      3369.752782     311.288182      0.100124        10.825187      
109             344.825000      3404.280454     311.595548      0.100131        10.925318      
110             344.502000      3438.774406     311.894387      0.100127        11.025445      
111             344.402000      3473.258001     312.186943      0.100126        11.125571      
112             344.446000      3507.747034     312.474682      0.100129        11.225700      
113             344.455000      3542.238347     312.757423      0.100133        11.325833      
114             344.447000      3576.725069     313.035109      0.100122        11.425955      
115             344.427000      3611.211512     313.307810      0.100127        11.526082      
116             344.411000      3645.694974     313.575666      0.100123        11.626205      
117             344.426000      3680.182349     313.839094      0.100130        11.726335      
118             344.440000      3714.670782     314.098177      0.100129        11.826464      
119             344.432000      3749.154625     314.352815      0.100118        11.926582      
120             344.896000      3783.679749     314.607038      0.100103        12.026685      
121             344.125000      3818.133889     314.850744      0.100121        12.126806      
122             344.125000      3852.590437     315.090475      0.100128        12.226934      
123             343.953000      3887.027011     315.324895      0.100120        12.327054      
124             343.953000      3921.464617     315.555545      0.100123        12.427177      
125             343.914000      3955.899350     315.782204      0.100126        12.527303      
126             343.916000      3990.332908     316.005275      0.100122        12.627425      
127             343.923000      4024.767855     316.224896      0.100124        12.727549      
128             343.930000      4059.205909     316.441158      0.100131        12.827680      
129             343.956000      4093.677180     316.654459      0.100220        12.927900      
130             343.991000      4128.116871     316.864535      0.100118        13.028018      
131             344.027000      4162.564638     317.071709      0.100131        13.128149      
132             345.029000      4197.110667     317.283318      0.100125        13.228274      
133             345.089000      4231.661668     317.492192      0.100122        13.328396      
134             345.087000      4266.211778     317.697933      0.100120        13.428516      
135             345.102000      4300.757869     317.900707      0.100104        13.528620      
136             345.140000      4335.313976     318.100818      0.100122        13.628742      
137             345.160000      4369.871740     318.298153      0.100121        13.728863      
138             345.187000      4404.448432     318.492918      0.100168        13.829031      
139             345.180000      4439.012686     318.684766      0.100134        13.929165      
140             345.158000      4473.569905     318.873692      0.100120        14.029285      
141             345.139000      4508.125221     319.059806      0.100120        14.129405      
142             345.131000      4542.680082     319.243247      0.100121        14.229526      
143             345.105000      4577.231995     319.423941      0.100120        14.329646      
144             345.144000      4611.787812     319.602398      0.100120        14.429766      
145             345.171000      4646.346333     319.778581      0.100120        14.529886      
146             345.197000      4680.908837     319.952538      0.100124        14.630010      
147             345.176000      4715.471655     320.124000      0.100131        14.730141      
148             345.163000      4750.033171     320.293058      0.100131        14.830272      
149             345.149000      4784.586383     320.459722      0.100111        14.930383      
150             345.163000      4819.135473     320.624233      0.100095        15.030478      
151             345.196000      4853.700294     320.786843      0.100131        15.130609      
152             345.210000      4888.265481     320.947403      0.100128        15.230737      
153             345.216000      4922.830578     321.105901      0.100126        15.330863      
154             345.222000      4957.395586     321.262378      0.100124        15.430987      
155             345.215000      4991.960238     321.416795      0.100125        15.531112      
156             345.188000      5026.521496     321.569057      0.100123        15.631235      
157             345.233000      5061.086914     321.719666      0.100122        15.731357      
158             345.233000      5095.655785     321.868384      0.100132        15.831489      
159             345.262000      5130.225488     322.015407      0.100126        15.931615      
160             345.329000      5164.800518     322.161006      0.100122        16.031737      
161             345.335000      5199.376149     322.304835      0.100122        16.131859      
162             345.335000      5233.943146     322.446854      0.100097        16.231956      
163             345.301000      5268.515373     322.586959      0.100122        16.332078      
164             345.301000      5303.087255     322.725355      0.100121        16.432199      
165             345.273000      5337.666346     322.861945      0.100150        16.532349      
166             345.273000      5372.235424     322.996850      0.100121        16.632470      
167             345.294000      5406.819035     323.130315      0.100157        16.732627      
168             345.289000      5441.385571     323.262099      0.100109        16.832736      
169             345.296000      5475.958333     323.392387      0.100125        16.932861      
170             345.276000      5510.529783     323.521028      0.100127        17.032988      
171             345.243000      5545.123132     323.648064      0.100200        17.133188      
172             345.248000      5579.691778     323.773562      0.100127        17.233315      
173             345.270000      5614.266771     323.897751      0.100139        17.333454      
174             345.314000      5648.833048     324.020720      0.100101        17.433555      
175             345.349000      5683.412498     324.142519      0.100129        17.533684      
176             345.362000      5717.991868     324.263003      0.100125        17.633809      
177             345.375000      5752.571849     324.382198      0.100123        17.733932      
178             345.355000      5787.149482     324.499942      0.100122        17.834054      
179             345.367000      5821.729699     324.616442      0.100126        17.934180      
180             345.395000      5856.306501     324.731783      0.100108        18.034288      
181             345.407000      5890.889686     324.845934      0.100123        18.134411      
182             345.419000      5925.475454     324.958902      0.100127        18.234538      
183             345.399000      5960.057839     325.070523      0.100123        18.334661      
184             345.264000      5994.627051     325.180199      0.100124        18.434785      
185             345.205000      6029.193464     325.288381      0.100133        18.534918      
186             345.165000      6063.757251     325.395189      0.100137        18.635055      
187             345.146000      6098.315340     325.500743      0.100126        18.735181      
188             345.093000      6132.875713     325.604916      0.100148        18.835329      
189             345.087000      6167.429275     325.707936      0.100130        18.935459      
190             345.075000      6201.983015     325.809814      0.100134        19.035593      
191             345.063000      6236.553496     325.910615      0.100186        19.135779      
192             345.064000      6271.100269     326.010302      0.100117        19.235896      
193             345.074000      6305.655634     326.109031      0.100139        19.336035      
194             345.161000      6340.222128     326.207197      0.100146        19.436181      
195             345.247000      6374.819330     326.304860      0.100210        19.536391      
196             345.281000      6409.737942     326.402585      0.101131        19.637522      
197             345.308000      6444.467985     326.498919      0.100577        19.738099      
198             345.364000      6479.251320     326.594691      0.100715        19.838814      
199             345.384000      6514.102293     326.689774      0.100905        19.939719      
200             345.205000      6548.662491     326.782272      0.100115        20.039834      
201             345.205000      6583.233737     326.873880      0.100147        20.139981      
202             345.225000      6617.799044     326.964660      0.100124        20.240105      
203             345.239000      6652.404076     327.054714      0.100235        20.340340      
204             345.239000      6686.973202     327.143792      0.100131        20.440471      
205             345.238000      6721.536359     327.231983      0.100114        20.540585      
206             345.238000      6756.092611     327.319300      0.100094        20.640679      
207             344.584000      6790.727438     327.402965      0.100512        20.741191      
