#timestep       power           acc-energy      avg-power       dt              acc-time       
1               136.607000      13.673678       136.607000      0.100095        0.100095       
2               136.607000      28.899621       136.607000      0.111458        0.211553       
3               136.536000      42.570288       136.584192      0.100125        0.311678       
4               136.565000      56.243995       136.579525      0.100126        0.411804       
5               136.470000      69.906689       136.558106      0.100115        0.511919       
6               136.478000      83.570320       136.545002      0.100116        0.612035       
7               136.437000      97.229438       136.529819      0.100113        0.712148       
8               136.384000      110.885568      136.511844      0.100130        0.812278       
9               136.351000      124.538257      136.494193      0.100129        0.912407       
10              136.263000      138.180908      136.471332      0.100120        1.012527       
11              134.003000      151.597289      136.249223      0.100120        1.112647       
12              133.886000      165.000349      136.054148      0.100108        1.212755       
13              141.532000      179.168409      136.471832      0.100105        1.312860       
14              163.243000      195.508054      138.368308      0.100094        1.412954       
15              181.048000      213.630054      141.191762      0.100095        1.513049       
16              198.991000      233.548456      144.778251      0.100097        1.613146       
17              220.386000      255.609976      149.195959      0.100104        1.713250       
18              234.784000      279.111854      153.920564      0.100100        1.813350       
19              252.653000      304.404441      159.086032      0.100108        1.913458       
20              274.244000      331.858459      164.811315      0.100108        2.013566       
21              292.180000      361.105385      170.843244      0.100099        2.113665       
22              310.190000      392.156025      177.144218      0.100102        2.213767       
23              313.115000      423.518249      183.029924      0.100162        2.313929       
24              313.182000      454.870586      188.427268      0.100109        2.414038       
25              313.275000      486.235992      193.399062      0.100121        2.514159       
26              313.355000      517.605648      197.992573      0.100109        2.614268       
27              313.519000      548.996424      202.253921      0.100124        2.714392       
28              313.572000      580.392507      206.213966      0.100124        2.814516       
29              313.572000      611.787022      209.901762      0.100119        2.914635       
30              313.634000      643.186804      213.346576      0.100116        3.014751       
31              313.634000      674.589408      216.570229      0.100125        3.114876       
32              313.739000      706.017899      219.597797      0.100174        3.215050       
33              313.812000      737.437070      222.443147      0.100121        3.315171       
34              313.867000      768.864887      225.123543      0.100131        3.415302       
35              313.892000      800.294579      227.651909      0.100129        3.515431       
36              313.971000      831.729983      230.042260      0.100122        3.615553       
37              313.985000      863.184372      232.305399      0.100178        3.715731       
38              313.676000      894.592437      234.440581      0.100129        3.815860       
39              313.724000      925.999974      236.467465      0.100112        3.915972       
40              313.731000      957.411976      238.393698      0.100124        4.016096       
41              313.741000      988.824666      240.226447      0.100123        4.116219       
42              313.777000      1020.246295     241.973299      0.100140        4.216359       
43              313.763000      1051.687858     243.639878      0.100208        4.316567       
44              313.790000      1083.106396     245.230175      0.100126        4.416693       
45              313.790000      1114.524933     246.749966      0.100126        4.516819       
46              313.858000      1145.949965     248.205299      0.100125        4.616944       
47              313.846000      1177.373482     249.598582      0.100124        4.717068       
48              314.215000      1208.834573     250.941642      0.100126        4.817194       
49              314.219000      1240.296065     252.230090      0.100126        4.917320       
50              314.253000      1271.760961     253.467792      0.100126        5.017446       
51              314.294000      1303.223990     254.657644      0.100107        5.117553       
52              314.315000      1334.694780     255.802443      0.100125        5.217678       
53              313.550000      1366.088660     256.889719      0.100124        5.317802       
54              313.550000      1397.481913     257.936788      0.100122        5.417924       
55              313.598000      1428.872759     258.946503      0.100099        5.518023       
56              313.557000      1460.278315     259.920080      0.100159        5.618182       
57              313.548000      1491.671054     260.859044      0.100121        5.718303       
58              313.562000      1523.065195     261.765934      0.100121        5.818424       
59              313.569000      1554.460037     262.642260      0.100121        5.918545       
60              313.536000      1585.846558     263.488749      0.100105        6.018650       
61              313.488000      1617.233290     264.306883      0.100121        6.118771       
62              313.495000      1648.621664     265.098810      0.100124        6.218895       
63              314.318000      1680.093068     265.878697      0.100126        6.319021       
64              314.306000      1711.564842     266.634104      0.100131        6.419152       
65              314.314000      1743.047475     267.366660      0.100163        6.519315       
66              314.382000      1774.572759     268.078872      0.100277        6.619592       
67              314.378000      1806.054572     268.768840      0.100140        6.719732       
68              314.426000      1837.530815     269.439032      0.100107        6.819839       
69              314.469000      1869.012307     270.090474      0.100110        6.919949       
70              314.561000      1900.504896     270.724686      0.100116        7.020065       
71              314.561000      1932.033030     271.341749      0.100229        7.120294       
72              314.582000      1963.533699     271.941418      0.100135        7.220429       
73              311.966000      1994.782709     272.489076      0.100168        7.320597       
74              312.031000      2026.049151     273.023010      0.100203        7.420800       
75              311.977000      2057.289280     273.541655      0.100136        7.520936       
76              312.030000      2088.533468     274.047347      0.100132        7.621068       
77              311.984000      2119.773986     274.539341      0.100135        7.721203       
78              312.069000      2151.023640     275.019835      0.100137        7.821340       
79              312.001000      2182.266484     275.487322      0.100137        7.921477       
80              311.996000      2213.507267     275.943052      0.100132        8.021609       
81              311.994000      2244.747850     276.387520      0.100132        8.121741       
82              312.013000      2275.989712     276.821384      0.100130        8.221871       
83              314.641000      2307.495030     277.276433      0.100131        8.322002       
84              314.706000      2339.005283     277.721412      0.100126        8.422128       
85              314.727000      2370.517009     278.156174      0.100124        8.522252       
86              314.759000      2402.055546     278.581525      0.100199        8.622451       
87              314.766000      2433.553236     278.996642      0.100067        8.722518       
88              314.780000      2465.067750     279.402699      0.100116        8.822634       
89              314.724000      2496.581064     279.799069      0.100130        8.922764       
90              314.714000      2528.120757     280.186865      0.100217        9.022981       
91              314.760000      2559.637676     280.566320      0.100130        9.123111       
92              314.810000      2591.157398     280.938052      0.100123        9.223234       
93              314.761000      2622.675361     281.301311      0.100133        9.323367       
94              314.787000      2654.194983     281.657116      0.100130        9.423497       
95              314.820000      2685.716650     282.005771      0.100126        9.523623       
96              314.812000      2717.236887     282.347082      0.100124        9.623747       
97              314.805000      2748.756738     282.681296      0.100125        9.723872       
98              314.820000      2780.277775     283.008846      0.100124        9.823996       
99              314.931000      2811.809612     283.330904      0.100123        9.924119       
100             314.663000      2843.317447     283.643880      0.100132        10.024251      
101             314.697000      2874.827743     283.950992      0.100129        10.124380      
102             314.731000      2906.340499     284.252413      0.100126        10.224506      
103             314.717000      2937.851539     284.547849      0.100125        10.324631      
104             314.711000      2969.361348     284.837546      0.100123        10.424754      
105             314.718000      3000.871544     285.121796      0.100122        10.524876      
106             314.726000      3032.382541     285.400763      0.100122        10.624998      
107             314.733000      3063.893923     285.674585      0.100121        10.725119      
108             314.718000      3095.404119     285.943206      0.100122        10.825241      
109             314.783000      3126.921767     286.207507      0.100125        10.925366      
110             314.967000      3158.456578     286.468668      0.100121        11.025487      
111             314.981000      3189.993105     286.725258      0.100122        11.125609      
112             314.993000      3221.531150     286.977379      0.100123        11.225732      
113             315.013000      3253.109313     287.225517      0.100244        11.325976      
114             315.006000      3284.653069     287.468982      0.100137        11.426113      
115             314.992000      3316.191643     287.708066      0.100125        11.526238      
116             314.998000      3347.730817     287.943084      0.100125        11.626363      
117             315.026000      3379.273426     288.174332      0.100127        11.726490      
118             314.980000      3410.818673     288.401327      0.100150        11.826640      
119             314.959000      3442.355832     288.624292      0.100131        11.926771      
120             314.965000      3473.892648     288.843587      0.100128        12.026899      
121             314.965000      3505.428833     289.059257      0.100126        12.127025      
122             315.000000      3536.976713     289.271736      0.100152        12.227177      
123             315.027000      3568.566046     289.481236      0.100275        12.327452      
124             315.008000      3600.358228     289.688527      0.100925        12.428377      
125             315.059000      3632.301745     289.893821      0.101389        12.529766      
126             315.015000      3663.898695     290.093324      0.100303        12.630069      
127             315.015000      3695.458158     290.289451      0.100184        12.730253      
128             315.060000      3727.020553     290.482858      0.100179        12.830432      
129             315.060000      3758.595866     290.673345      0.100220        12.930652      
130             315.061000      3790.162143     290.860856      0.100191        13.030843      
131             315.079000      3821.746292     291.045736      0.100242        13.131085      
132             315.116000      3853.309571     291.227954      0.100164        13.231249      
133             315.125000      3884.859256     291.407420      0.100118        13.331367      
134             315.076000      3916.396473     291.583803      0.100094        13.431461      
135             315.072000      3947.935180     291.757557      0.100100        13.531561      
136             315.138000      3979.488057     291.929285      0.100124        13.631685      
137             315.143000      4011.044271     292.098561      0.100133        13.731818      
138             315.113000      4042.601893     292.265191      0.100147        13.831965      
139             315.111000      4074.174125     292.429488      0.100194        13.932159      
140             315.131000      4105.721574     292.591445      0.100109        14.032268      
141             315.113000      4137.289279     292.751091      0.100179        14.132447      
142             315.119000      4168.844035     292.908465      0.100136        14.232583      
143             315.127000      4200.414404     293.063768      0.100183        14.332766      
144             315.160000      4231.972635     293.217069      0.100134        14.432900      
145             315.134000      4263.522906     293.368053      0.100117        14.533017      
146             315.133000      4295.068034     293.516941      0.100101        14.633118      
147             315.140000      4326.620166     293.663882      0.100121        14.733239      
148             315.188000      4358.167963     293.809122      0.100092        14.833331      
149             315.186000      4389.712093     293.952386      0.100081        14.933412      
150             315.187000      4421.273344     294.093825      0.100135        15.033547      
151             315.206000      4452.839018     294.233529      0.100143        15.133690      
152             315.187000      4484.396486     294.371244      0.100123        15.233813      
153             315.214000      4515.960755     294.507355      0.100136        15.333949      
154             315.236000      4547.530064     294.641854      0.100145        15.434094      
155             315.289000      4579.093961     294.774915      0.100111        15.534205      
156             315.297000      4610.652354     294.906298      0.100091        15.634296      
157             315.303000      4642.280082     295.036328      0.100309        15.734605      
158             315.298000      4673.870104     295.164529      0.100191        15.834796      
159             315.324000      4705.461785     295.291278      0.100188        15.934984      
160             315.332000      4737.041969     295.416444      0.100149        16.035133      
161             315.258000      4768.622309     295.539627      0.100173        16.135306      
162             315.257000      4800.181426     295.661202      0.100106        16.235412      
163             315.256000      4831.774176     295.781409      0.100213        16.335625      
164             315.228000      4863.348043     295.899919      0.100162        16.435787      
165             315.249000      4894.902576     296.017042      0.100094        16.535881      
166             315.176000      4926.481005     296.132429      0.100193        16.636074      
167             315.215000      4958.044744     296.246602      0.100134        16.736208      
168             315.181000      4989.601611     296.359201      0.100123        16.836331      
169             315.227000      5021.155203     296.470714      0.100098        16.936429      
170             315.194000      5052.746783     296.580866      0.100229        17.036658      
171             315.325000      5084.447982     296.690828      0.100535        17.137193      
172             315.315000      5116.017320     296.799003      0.100120        17.237313      
173             315.346000      5147.646523     296.906300      0.100300        17.337613      
174             315.322000      5179.223184     297.012057      0.100141        17.437754      
175             315.360000      5210.787566     297.116770      0.100090        17.537844      
176             315.323000      5242.358020     297.220117      0.100121        17.637965      
177             315.323000      5273.932258     297.322309      0.100133        17.738098      
178             315.349000      5305.499639     297.423470      0.100103        17.838201      
179             315.369000      5337.077537     297.523640      0.100130        17.938331      
180             315.369000      5368.650705     297.622683      0.100115        18.038446      
181             315.274000      5400.214992     297.720111      0.100117        18.138563      
182             315.274000      5431.774550     297.816455      0.100102        18.238665      
183             315.280000      5463.344482     297.911809      0.100133        18.338798      
184             315.281000      5494.913884     298.006131      0.100131        18.438929      
185             315.265000      5526.474432     298.099326      0.100108        18.539037      
186             315.321000      5558.045947     298.191836      0.100125        18.639162      
187             315.346000      5589.622173     298.283498      0.100132        18.739294      
188             315.336000      5621.189829     298.374111      0.100108        18.839402      
189             315.349000      5652.750903     298.463813      0.100083        18.939485      
190             315.424000      5684.328946     298.552992      0.100113        19.039598      
191             315.438000      5715.911230     298.641319      0.100122        19.139720      
192             315.406000      5747.492832     298.728568      0.100130        19.239850      
193             315.405000      5779.098621     298.814974      0.100207        19.340057      
194             315.435000      5810.675242     298.900557      0.100105        19.440162      
195             315.438000      5842.254686     298.985285      0.100113        19.540275      
196             315.377000      5873.830232     299.068844      0.100120        19.640395      
197             315.378000      5905.402093     299.151551      0.100108        19.740503      
198             315.396000      5936.969763     299.233499      0.100089        19.840592      
199             315.409000      5968.541573     299.314696      0.100098        19.940690      
200             315.380000      6000.110795     299.394939      0.100099        20.040789      
201             315.420000      6031.689384     299.474596      0.100116        20.140905      
202             315.436000      6063.308689     299.553641      0.100240        20.241145      
203             315.437000      6094.884248     299.631805      0.100101        20.341246      
204             315.447000      6126.459862     299.709249      0.100098        20.441344      
205             315.452000      6158.042601     299.785979      0.100119        20.541463      
206             315.473000      6189.632805     299.862080      0.100136        20.641599      
207             315.479000      6221.212568     299.937448      0.100101        20.741700      
