#timestep       power           acc-energy      avg-power       dt              acc-time       
1               136.921000      13.714966       136.921000      0.100167        0.100167       
2               136.873000      28.994920       136.895700      0.111636        0.211803       
3               136.871000      42.740738       136.887756      0.100429        0.312232       
4               136.829000      56.444025       136.873486      0.100149        0.412381       
5               136.787000      70.139824       136.856590      0.100125        0.512506       
6               136.749000      83.837834       136.839000      0.100169        0.612675       
7               136.713000      97.529094       136.821298      0.100146        0.712821       
8               136.787000      111.223935      136.817074      0.100118        0.812939       
9               136.765000      124.935037      136.811357      0.100253        0.913192       
10              136.810000      138.660910      136.811223      0.100328        1.013520       
11              134.163000      152.101091      136.573013      0.100178        1.113698       
12              134.121000      165.530627      136.370744      0.100130        1.213828       
13              149.002000      180.451687      137.333396      0.100140        1.313968       
14              165.540000      197.043927      139.332532      0.100231        1.414199       
15              184.819000      215.556877      142.341240      0.100168        1.514367       
16              204.597000      236.042561      146.202191      0.100127        1.614494       
17              228.323000      258.911621      150.999251      0.100161        1.714655       
18              252.055000      284.147115      156.574381      0.100119        1.814774       
19              274.680000      311.646154      162.749109      0.100113        1.914887       
20              287.750000      340.491653      168.967419      0.100245        2.015132       
21              307.607000      371.282498      175.528192      0.100098        2.115230       
22              331.298000      404.540842      182.586006      0.100388        2.215618       
23              336.504000      438.231286      189.240525      0.100119        2.315737       
24              336.331000      471.924925      195.339875      0.100180        2.415917       
25              336.325000      505.604511      200.951135      0.100140        2.516057       
26              336.325000      539.275016      206.131488      0.100113        2.616170       
27              336.476000      572.968713      210.936655      0.100137        2.716307       
28              336.514000      606.655447      215.400107      0.100105        2.816412       
29              336.589000      640.349689      219.559731      0.100105        2.916517       
30              336.589000      674.050662      223.444036      0.100125        3.016642       
31              336.628000      707.759244      227.080416      0.100136        3.116778       
32              336.680000      741.467309      230.491467      0.100119        3.216897       
33              336.700000      775.176702      233.697145      0.100117        3.317014       
34              336.700000      808.889127      236.715243      0.100126        3.417140       
35              336.734000      842.604955      239.562477      0.100126        3.517266       
36              336.727000      876.333215      242.252918      0.100165        3.617431       
37              336.707000      910.051054      244.797222      0.100140        3.717571       
38              336.786000      943.779835      247.210334      0.100149        3.817720       
39              336.826000      977.495781      249.499985      0.100099        3.917819       
40              336.840000      1011.238054     251.677468      0.100173        4.017992       
41              336.929000      1044.973407     253.750234      0.100126        4.118118       
42              336.935000      1078.708013     255.724666      0.100122        4.218240       
43              336.988000      1112.567557     257.615296      0.100477        4.318717       
44              337.054000      1146.302617     259.414619      0.100088        4.418805       
45              337.094000      1180.051795     261.135628      0.100118        4.518923       
46              337.153000      1213.797101     262.782842      0.100089        4.619012       
47              337.230000      1247.578442     264.363114      0.100173        4.719185       
48              337.223000      1281.335476     265.876510      0.100103        4.819288       
49              337.271000      1315.104397     267.329591      0.100124        4.919412       
50              337.311000      1348.871927     268.725282      0.100108        5.019520       
51              337.305000      1382.640543     270.066339      0.100113        5.119633       
52              337.327000      1416.414059     271.356478      0.100121        5.219754       
53              337.366000      1450.176299     272.598241      0.100076        5.319830       
54              337.406000      1483.943217     273.794909      0.100078        5.419908       
55              337.467000      1517.730750     274.949778      0.100121        5.520029       
56              337.427000      1551.538236     276.063563      0.100192        5.620221       
57              337.506000      1585.323262     277.138767      0.100102        5.720323       
58              337.500000      1619.113762     278.177067      0.100120        5.820443       
59              337.507000      1652.905300     279.180379      0.100121        5.920564       
60              337.505000      1686.698663     280.150345      0.100127        6.020691       
61              337.545000      1720.500757     281.089361      0.100141        6.120832       
62              337.525000      1754.293085     281.997619      0.100118        6.220950       
63              337.554000      1788.082578     282.877417      0.100101        6.321051       
64              337.582000      1821.907957     283.731043      0.100199        6.421250       
65              337.612000      1855.700217     284.558028      0.100092        6.521342       
66              337.605000      1889.490764     285.359881      0.100089        6.621431       
67              337.602000      1923.290801     286.138032      0.100118        6.721549       
68              337.586000      1957.121644     286.893820      0.100214        6.821763       
69              337.658000      1990.923574     287.627993      0.100107        6.921870       
70              337.658000      2024.719425     288.341106      0.100089        7.021959       
71              337.752000      2058.526036     289.035525      0.100093        7.122052       
72              337.758000      2092.330883     289.710732      0.100086        7.222138       
73              337.778000      2126.137395     290.367747      0.100085        7.322223       
74              337.784000      2159.944168     291.007118      0.100084        7.422307       
75              337.805000      2193.753044     291.629755      0.100084        7.522391       
76              337.760000      2227.557078     292.235445      0.100083        7.622474       
77              337.827000      2261.368156     292.826309      0.100084        7.722558       
78              337.827000      2295.181260     293.402088      0.100090        7.822648       
79              337.818000      2328.988059     293.963118      0.100074        7.922722       
80              337.817000      2362.812999     294.510429      0.100128        8.022850       
81              337.824000      2396.637627     295.044319      0.100125        8.122975       
82              337.805000      2430.448192     295.564791      0.100089        8.223064       
83              337.798000      2464.252651     296.072581      0.100073        8.323137       
84              337.791000      2498.061477     296.568295      0.100088        8.423225       
85              337.750000      2531.866536     297.051890      0.100089        8.523314       
86              337.777000      2565.688485     297.524769      0.100131        8.623445       
87              337.783000      2599.494146     297.986634      0.100081        8.723526       
88              337.736000      2633.316042     298.437763      0.100143        8.823669       
89              337.789000      2667.136828     298.879280      0.100124        8.923793       
90              337.816000      2700.969100     299.311410      0.100150        9.023943       
91              337.822000      2734.841161     299.734603      0.100266        9.124209       
92              337.849000      2768.655454     300.148158      0.100087        9.224296       
93              337.877000      2802.471197     300.553120      0.100083        9.324379       
94              337.856000      2836.285853     300.949269      0.100086        9.424465       
95              337.987000      2870.113620     301.338469      0.100086        9.524551       
96              337.500000      2903.926395     301.714883      0.100186        9.624737       
97              337.432000      2937.699626     302.082487      0.100089        9.724826       
98              337.439000      2971.473221     302.442670      0.100088        9.824914       
99              337.420000      3005.247613     302.795424      0.100096        9.925010       
100             337.440000      3039.018271     303.141276      0.100079        10.025089      
101             337.434000      3072.788666     303.480235      0.100080        10.125169      
102             337.442000      3106.560199     303.812640      0.100081        10.225250      
103             337.513000      3140.353350     304.139429      0.100124        10.325374      
104             337.465000      3174.137309     304.459438      0.100111        10.425485      
105             337.464000      3207.929266     304.773426      0.100135        10.525620      
106             338.050000      3241.786326     305.087077      0.100154        10.625774      
107             338.044000      3275.636024     305.394753      0.100134        10.725908      
108             338.030000      3309.480602     305.696575      0.100123        10.826031      
109             338.081000      3343.355980     305.993557      0.100199        10.926230      
110             338.065000      3377.194934     306.284698      0.100096        11.026326      
111             338.115000      3411.060194     306.571230      0.100159        11.126485      
112             338.026000      3444.912484     306.851822      0.100147        11.226632      
113             338.071000      3478.779423     307.127932      0.100177        11.326809      
114             338.057000      3512.626366     307.398930      0.100122        11.426931      
115             338.037000      3546.472996     307.665060      0.100127        11.527058      
116             338.034000      3580.317637     307.926568      0.100122        11.627180      
117             338.062000      3614.161699     308.183824      0.100112        11.727292      
118             338.030000      3648.011686     308.436522      0.100139        11.827431      
119             338.071000      3681.856650     308.685255      0.100112        11.927543      
120             337.992000      3715.714322     308.929336      0.100173        12.027716      
121             338.041000      3749.550536     309.169605      0.100095        12.127811      
122             338.096000      3783.395636     309.406414      0.100105        12.227916      
123             338.105000      3817.245018     309.639473      0.100115        12.328031      
124             338.133000      3851.092808     309.868973      0.100102        12.428133      
125             337.660000      3884.893924     310.091031      0.100104        12.528237      
126             337.569000      3918.695384     310.308907      0.100132        12.628369      
127             337.575000      3952.503182     310.523439      0.100149        12.728518      
128             337.647000      3986.314140     310.735158      0.100137        12.828655      
129             337.628000      4020.145816     310.943589      0.100204        12.928859      
130             337.689000      4053.950849     311.149085      0.100107        13.028966      
131             337.710000      4087.755620     311.351593      0.100100        13.129066      
132             337.670000      4121.554361     311.550723      0.100094        13.229160      
133             337.670000      4155.353439     311.746864      0.100095        13.329255      
134             337.698000      4189.154308     311.940283      0.100092        13.429347      
135             337.703000      4222.954325     312.130871      0.100088        13.529435      
136             337.676000      4256.754680     312.318477      0.100097        13.629532      
137             337.682000      4290.554960     312.503388      0.100095        13.729627      
138             337.608000      4324.345807     312.685077      0.100089        13.829716      
139             337.622000      4358.149197     312.864313      0.100122        13.929838      
140             337.610000      4391.952398     313.040911      0.100125        14.029963      
141             337.647000      4425.752551     313.215234      0.100105        14.130068      
142             337.645000      4459.558919     313.387122      0.100124        14.230192      
143             337.671000      4493.371605     313.556809      0.100135        14.330327      
144             337.663000      4527.189567     313.724115      0.100153        14.430480      
145             337.730000      4561.001068     313.889513      0.100114        14.530594      
146             338.307000      4594.877440     314.056630      0.100135        14.630729      
147             337.776000      4628.696924     314.217848      0.100124        14.730853      
148             337.345000      4662.472917     314.373978      0.100123        14.830976      
149             337.374000      4696.245067     314.528178      0.100103        14.931079      
150             337.373000      4730.167247     314.680989      0.100548        15.031627      
151             337.451000      4763.985574     314.831793      0.100217        15.131844      
152             337.330000      4797.761078     314.979683      0.100126        15.231970      
153             337.155000      4831.515013     315.124481      0.100114        15.332084      
154             336.697000      4865.225454     315.264439      0.100121        15.432205      
155             336.638000      4898.929650     315.402211      0.100120        15.532325      
156             336.687000      4932.629662     315.538496      0.100093        15.632418      
157             336.991000      4966.364820     315.674999      0.100107        15.732525      
158             337.142000      5000.120826     315.810754      0.100124        15.832649      
159             337.173000      5033.942312     315.945245      0.100309        15.932958      
160             337.166000      5067.700047     316.077762      0.100122        16.033080      
161             336.948000      5101.432585     316.207269      0.100112        16.133192      
162             336.658000      5135.135080     316.333387      0.100109        16.233301      
163             336.926000      5168.861036     316.459588      0.100099        16.333400      
164             337.311000      5202.625193     316.586596      0.100098        16.433498      
165             337.119000      5236.384626     316.710957      0.100141        16.533639      
166             336.736000      5270.100655     316.831496      0.100126        16.633765      
167             337.164000      5303.861898     316.953163      0.100133        16.733898      
168             337.353000      5337.637343     317.074489      0.100119        16.834017      
169             337.348000      5371.414649     317.194360      0.100126        16.934143      
170             337.325000      5405.181219     317.312657      0.100101        17.034244      
171             337.258000      5438.962329     317.429253      0.100164        17.134408      
172             337.229000      5472.717603     317.544247      0.100096        17.234504      
173             337.170000      5506.477761     317.657609      0.100128        17.334632      
174             337.136000      5540.229794     317.769458      0.100114        17.434746      
175             337.128000      5573.979341     317.879979      0.100109        17.534855      
176             337.147000      5607.750007     317.989415      0.100166        17.635021      
177             337.088000      5641.511393     318.097270      0.100156        17.735177      
178             337.129000      5675.282954     318.204164      0.100174        17.835351      
179             337.164000      5709.064426     318.310079      0.100193        17.935544      
180             337.137000      5742.812851     318.414574      0.100103        18.035647      
181             337.760000      5776.622627     318.521351      0.100100        18.135747      
182             337.760000      5810.436457     318.626968      0.100112        18.235859      
183             337.920000      5844.261235     318.732289      0.100097        18.335956      
184             337.927000      5878.095838     318.836533      0.100124        18.436080      
185             337.970000      5911.929001     318.939866      0.100107        18.536187      
186             337.997000      5945.769598     319.042248      0.100121        18.636308      
187             338.010000      5979.615553     319.143617      0.100133        18.736441      
188             338.065000      6013.457550     319.244173      0.100105        18.836546      
189             337.964000      6047.295858     319.343151      0.100124        18.936670      
190             337.502000      6081.106808     319.438710      0.100180        19.036850      
191             337.436000      6114.891913     319.532870      0.100123        19.136973      
192             337.362000      6148.671633     319.625671      0.100129        19.237102      
193             337.281000      6182.444928     319.717095      0.100134        19.337236      
194             336.767000      6216.184604     319.804976      0.100187        19.437423      
195             336.907000      6249.921460     319.892630      0.100137        19.537560      
196             337.365000      6283.716661     319.981759      0.100174        19.637734      
197             337.156000      6317.465977     320.068857      0.100100        19.737834      
198             337.150000      6351.220424     320.155062      0.100117        19.837951      
199             337.372000      6384.994060     320.241507      0.100108        19.938059      
200             337.763000      6418.814944     320.329063      0.100132        20.038191      
201             337.542000      6452.613025     320.414648      0.100130        20.138321      
202             337.329000      6486.390115     320.498332      0.100131        20.238452      
203             337.637000      6520.189942     320.582689      0.100107        20.338559      
204             337.947000      6554.014719     320.667723      0.100089        20.438648      
205             337.978000      6587.852401     320.752104      0.100118        20.538766      
206             337.934000      6621.692774     320.835469      0.100139        20.638905      
207             338.243000      6655.565104     320.919525      0.100142        20.739047      
