#timestep       power           acc-energy      avg-power       dt              acc-time       
1               137.085000      13.724539       137.085000      0.100117        0.100117       
2               137.007000      28.764893       137.044205      0.109778        0.209895       
3               136.988000      42.480817       137.026053      0.100125        0.310020       
4               137.025000      56.199349       137.025796      0.100117        0.410137       
5               136.901000      69.907520       137.001307      0.100132        0.510269       
6               136.954000      83.621819       136.993546      0.100138        0.610407       
7               136.923000      97.332604       136.983604      0.100135        0.710542       
8               136.875000      111.042688      136.970186      0.100165        0.810707       
9               136.943000      124.755202      136.967197      0.100133        0.910840       
10              136.952000      138.468479      136.965692      0.100132        1.010972       
11              133.116000      151.794722      136.618829      0.100110        1.111082       
12              133.061000      165.115858      136.324752      0.100113        1.211195       
13              141.652000      179.299756      136.731537      0.100132        1.311327       
14              161.293000      195.449702      138.473916      0.100128        1.411455       
15              184.519000      213.924298      141.523823      0.100123        1.511578       
16              202.489000      234.197901      145.311101      0.100122        1.611700       
17              221.450000      256.369918      149.764355      0.100122        1.711822       
18              238.714000      280.271157      154.679556      0.100125        1.811947       
19              255.542000      305.857811      159.961283      0.100127        1.912074       
20              281.206000      334.018061      165.995215      0.100141        2.012215       
21              297.226000      363.778706      172.215737      0.100128        2.112343       
22              315.981000      395.416620      178.721880      0.100126        2.212469       
23              326.473000      428.112238      185.120250      0.100148        2.312617       
24              326.196000      460.768698      190.974000      0.100113        2.412730       
25              326.108000      493.412761      196.357242      0.100102        2.512832       
26              326.081000      526.057056      201.327414      0.100111        2.612943       
27              326.120000      558.714713      205.933513      0.100140        2.713083       
28              326.062000      591.366235      210.209587      0.100139        2.813222       
29              326.134000      624.019750      214.193564      0.100123        2.913345       
30              326.092000      656.670363      217.911553      0.100127        3.013472       
31              326.153000      689.360679      221.395843      0.100230        3.113702       
32              326.369000      722.038701      224.666255      0.100126        3.213828       
33              326.397000      754.723444      227.740250      0.100138        3.313966       
34              326.490000      787.416847      230.636591      0.100136        3.414102       
35              326.507000      820.104442      233.367748      0.100113        3.514215       
36              326.515000      852.790226      235.947627      0.100105        3.614320       
37              326.515000      885.472092      238.388163      0.100093        3.714413       
38              326.508000      918.163052      240.701111      0.100123        3.814536       
39              326.550000      950.861483      242.897033      0.100133        3.914669       
40              326.550000      983.559262      244.983377      0.100131        4.014800       
41              326.595000      1016.263178     246.969377      0.100136        4.114936       
42              326.595000      1048.964809     248.860886      0.100129        4.215065       
43              326.616000      1081.689773     250.666246      0.100194        4.315259       
44              326.574000      1114.387994     252.387560      0.100125        4.415384       
45              326.653000      1147.093799     254.034275      0.100124        4.515508       
46              326.619000      1179.795874     255.608794      0.100123        4.615631       
47              326.666000      1212.503307     257.117482      0.100125        4.715756       
48              326.645000      1245.208311     258.562986      0.100124        4.815880       
49              326.706000      1277.919749     259.950864      0.100125        4.916005       
50              326.699000      1310.630813     261.283211      0.100126        5.016131       
51              326.778000      1343.340311     262.564591      0.100097        5.116228       
52              326.725000      1376.051037     263.796018      0.100117        5.216345       
53              326.825000      1408.775044     264.983065      0.100127        5.316472       
54              326.827000      1441.508729     266.126588      0.100156        5.416628       
55              326.855000      1474.237374     267.228840      0.100132        5.516760       
56              326.831000      1506.963616     268.291364      0.100132        5.616892       
57              326.860000      1539.691781     269.317146      0.100129        5.717021       
58              326.842000      1572.417490     270.307286      0.100127        5.817148       
59              326.862000      1605.147489     271.264322      0.100134        5.917282       
60              326.868000      1637.888222     272.189888      0.100165        6.017447       
61              326.837000      1670.614738     273.084338      0.100131        6.117578       
62              326.851000      1703.342982     273.950214      0.100132        6.217710       
63              326.837000      1736.069498     274.788412      0.100131        6.317841       
64              326.858000      1768.814132     275.601176      0.100180        6.418021       
65              326.851000      1801.542377     276.388476      0.100132        6.518153       
66              326.900000      1834.277162     277.152733      0.100137        6.618290       
67              326.854000      1867.008322     277.893544      0.100140        6.718430       
68              326.892000      1899.742960     278.613146      0.100139        6.818569       
69              326.879000      1932.475642     279.311716      0.100137        6.918706       
70              326.936000      1965.212398     279.991132      0.100132        7.018838       
71              326.909000      1997.945142     280.651030      0.100128        7.118966       
72              326.987000      2030.685369     281.293698      0.100127        7.219093       
73              326.973000      2063.424522     281.918598      0.100128        7.319221       
74              327.008000      2096.169795     282.527151      0.100136        7.419357       
75              327.020000      2128.928042     283.119866      0.100172        7.519529       
76              327.067000      2161.680205     283.697427      0.100139        7.619668       
77              327.001000      2194.424123     284.259120      0.100134        7.719802       
78              327.062000      2227.173495     284.807198      0.100132        7.819934       
79              327.062000      2259.921559     285.341397      0.100128        7.920062       
80              327.081000      2292.671525     285.862495      0.100128        8.020190       
81              327.105000      2325.423895     286.371038      0.100128        8.120318       
82              327.105000      2358.176264     286.867192      0.100128        8.220446       
83              327.098000      2390.927606     287.351317      0.100127        8.320573       
84              327.128000      2423.681951     287.824284      0.100127        8.420700       
85              327.120000      2456.435168     288.286038      0.100126        8.520826       
86              327.147000      2489.216279     288.737722      0.100203        8.621029       
87              327.131000      2521.969616     289.178496      0.100123        8.721152       
88              327.240000      2554.900104     289.612667      0.100631        8.821783       
89              327.212000      2587.751208     290.035754      0.100397        8.922180       
90              327.236000      2620.508186     290.448490      0.100102        9.022282       
91              327.189000      2653.251298     290.851541      0.100074        9.122356       
92              327.226000      2685.993531     291.246191      0.100060        9.222416       
93              327.209000      2718.734718     291.632195      0.100062        9.322478       
94              326.912000      2751.447167     292.006857      0.100065        9.422543       
95              326.878000      2784.156868     292.373296      0.100067        9.522610       
96              326.896000      2816.868043     292.732296      0.100066        9.622676       
97              326.878000      2849.577744     293.083726      0.100067        9.722743       
98              326.924000      2882.291721     293.428460      0.100066        9.822809       
99              326.885000      2915.002122     293.765852      0.100067        9.922876       
100             326.910000      2947.714372     294.096750      0.100065        10.022941      
101             326.903000      2980.426901     294.421046      0.100068        10.123009      
102             326.917000      3013.139851     294.739122      0.100065        10.223074      
103             327.195000      3045.920536     295.054105      0.100187        10.323261      
104             327.268000      3078.687917     295.363542      0.100124        10.423385      
105             327.289000      3111.459692     295.667312      0.100131        10.523516      
106             327.275000      3144.227447     295.965201      0.100123        10.623639      
107             327.295000      3176.999495     296.257733      0.100130        10.723769      
108             327.283000      3209.769688     296.544737      0.100128        10.823897      
109             327.249000      3242.536148     296.826165      0.100127        10.924024      
110             327.217000      3275.298750     297.102185      0.100125        11.024149      
111             327.249000      3308.065211     297.373529      0.100127        11.124276      
112             327.234000      3340.830497     297.639901      0.100128        11.224404      
113             327.274000      3373.598806     297.901909      0.100125        11.324529      
114             327.269000      3406.366288     298.159278      0.100124        11.424653      
115             327.257000      3439.133876     298.412081      0.100128        11.524781      
116             327.227000      3471.895844     298.660250      0.100120        11.624901      
117             327.241000      3504.661503     298.904318      0.100127        11.725028      
118             327.233000      3537.436506     299.144259      0.100158        11.825186      
119             327.328000      3570.209895     299.380888      0.100124        11.925310      
120             327.328000      3602.984920     299.613588      0.100129        12.025439      
121             327.321000      3635.759572     299.842389      0.100130        12.125569      
122             327.321000      3668.533896     300.067440      0.100129        12.225698      
123             327.295000      3701.305290     300.288621      0.100128        12.325826      
124             327.295000      3734.077011     300.506240      0.100129        12.425955      
125             327.309000      3766.851443     300.720500      0.100133        12.526088      
126             327.343000      3799.627970     300.931623      0.100129        12.626217      
127             327.343000      3832.405152     301.139428      0.100131        12.726348      
128             327.343000      3865.182662     301.343990      0.100132        12.826480      
129             327.357000      3897.981869     301.545616      0.100194        12.926674      
130             327.364000      3930.749368     301.743999      0.100095        13.026769      
131             327.306000      3963.517936     301.938955      0.100116        13.126885      
132             327.292000      3996.298193     302.130930      0.100156        13.227041      
133             327.314000      4029.071817     302.320134      0.100129        13.327170      
134             327.293000      4061.843992     302.506363      0.100131        13.427301      
135             327.334000      4094.625510     302.690168      0.100147        13.527448      
136             327.313000      4127.491663     302.871593      0.100412        13.627860      
137             327.334000      4160.320318     303.050303      0.100291        13.728151      
138             327.307000      4193.094549     303.225950      0.100133        13.828284      
139             327.347000      4225.874751     303.399369      0.100139        13.928423      
140             327.400000      4258.666152     303.570722      0.100157        14.028580      
141             327.427000      4291.451745     303.739792      0.100131        14.128711      
142             327.420000      4324.247442     303.906489      0.100164        14.228875      
143             327.420000      4357.026113     304.070770      0.100112        14.328987      
144             327.393000      4389.807647     304.232612      0.100129        14.429116      
145             327.339000      4422.585410     304.391859      0.100134        14.529250      
146             327.306000      4455.352996     304.548667      0.100113        14.629363      
147             327.272000      4488.118814     304.703120      0.100118        14.729481      
148             327.264000      4520.888086     304.855453      0.100131        14.829612      
149             327.219000      4553.654815     305.005450      0.100137        14.929749      
150             327.229000      4586.422545     305.153515      0.100137        15.029886      
151             327.219000      4619.190256     305.299558      0.100140        15.130026      
152             327.219000      4651.958294     305.443683      0.100141        15.230167      
153             327.192000      4684.724936     305.585753      0.100145        15.330312      
154             327.178000      4717.488214     305.725880      0.100139        15.430451      
155             327.242000      4750.257901     305.864613      0.100139        15.530590      
156             327.242000      4783.026933     306.001566      0.100137        15.630727      
157             327.317000      4815.803803     306.137253      0.100138        15.730865      
158             327.338000      4848.584085     306.271363      0.100142        15.831007      
159             327.393000      4881.368565     306.404126      0.100138        15.931145      
160             327.394000      4914.151836     306.535233      0.100134        16.031279      
161             327.420000      4946.935418     306.664863      0.100127        16.131406      
162             327.414000      4979.717090     306.792853      0.100123        16.231529      
163             327.428000      5012.502128     306.919367      0.100129        16.331658      
164             327.434000      5045.288095     307.044376      0.100130        16.431788      
165             327.454000      5078.078683     307.168002      0.100138        16.531926      
166             327.467000      5110.868609     307.290211      0.100132        16.632058      
167             327.481000      5143.659609     307.411039      0.100131        16.732189      
168             327.450000      5176.447832     307.530247      0.100132        16.832321      
169             327.450000      5209.238675     307.648054      0.100140        16.932461      
170             327.478000      5242.037562     307.764659      0.100156        17.032617      
171             327.466000      5274.849328     307.879880      0.100199        17.132816      
172             327.510000      5307.645852     307.993948      0.100139        17.232955      
173             327.506000      5340.440992     308.106673      0.100136        17.333091      
174             327.513000      5373.237489     308.218144      0.100138        17.433229      
175             327.514000      5406.035396     308.328353      0.100142        17.533371      
176             327.517000      5438.829673     308.437313      0.100130        17.633501      
177             327.478000      5471.623648     308.544835      0.100141        17.733642      
178             327.514000      5504.419590     308.651346      0.100136        17.833778      
179             327.498000      5537.211637     308.756571      0.100129        17.933907      
180             327.513000      5569.999618     308.860694      0.100112        18.034019      
181             327.273000      5602.768155     308.962356      0.100126        18.134145      
182             327.273000      5635.540618     309.062913      0.100138        18.234283      
183             327.265000      5668.310972     309.162324      0.100134        18.334417      
184             327.252000      5701.080024     309.260585      0.100134        18.434551      
185             327.252000      5733.850384     309.357788      0.100138        18.534689      
186             327.208000      5766.614049     309.453703      0.100131        18.634820      
187             327.227000      5799.377979     309.548689      0.100126        18.734946      
188             327.253000      5832.147131     309.642812      0.100134        18.835080      
189             327.240000      5864.914654     309.735869      0.100133        18.935213      
190             327.237000      5897.683186     309.827935      0.100137        19.035350      
191             327.169000      5930.440000     309.918668      0.100122        19.135472      
192             327.048000      5963.186335     310.007832      0.100127        19.235599      
193             326.731000      5995.901257     310.094431      0.100128        19.335727      
194             326.420000      6028.586671     310.178540      0.100133        19.435860      
195             326.096000      6061.239642     310.260126      0.100133        19.535993      
196             325.841000      6093.866753     310.339578      0.100132        19.636125      
197             324.086000      6126.318132     310.409321      0.100132        19.736257      
198             323.427000      6158.710316     310.475046      0.100153        19.836410      
199             323.214000      6191.074380     310.539028      0.100132        19.936542      
200             322.856000      6223.403243     310.600583      0.100134        20.036676      
201             322.612000      6255.724126     310.660342      0.100185        20.136861      
202             322.703000      6288.037023     310.719929      0.100132        20.236993      
203             322.820000      6320.360667     310.779503      0.100129        20.337122      
204             322.790000      6352.677756     310.838340      0.100118        20.437240      
205             322.816000      6384.998417     310.896732      0.100121        20.537361      
206             322.836000      6417.337868     310.954684      0.100173        20.637534      
207             324.275000      6449.809469     311.019004      0.100136        20.737670      
