#timestep       power           acc-energy      avg-power       dt              acc-time       
1               137.371000      13.749876       137.371000      0.100093        0.100093       
2               137.385000      28.916080       137.378343      0.110392        0.210485       
3               137.277000      42.668765       137.345662      0.100182        0.310667       
4               137.281000      56.414849       137.329901      0.100131        0.410798       
5               137.191000      70.151509       137.302680      0.100128        0.510926       
6               137.217000      83.889675       137.288641      0.100120        0.611046       
7               137.110000      97.617951       137.263490      0.100126        0.711172       
8               137.088000      111.342105      137.241835      0.100112        0.811284       
9               137.195000      125.079166      137.236690      0.100128        0.911412       
10              137.188000      138.815251      137.231870      0.100126        1.011538       
11              133.131000      152.151516      136.862350      0.100174        1.111712       
12              133.076000      165.477082      136.549483      0.100135        1.211847       
13              142.395000      179.742213      136.995818      0.100180        1.312027       
14              160.552000      195.815234      138.665792      0.100111        1.412138       
15              179.922000      213.827945      141.397032      0.100114        1.512252       
16              196.526000      233.508255      144.820931      0.100141        1.612393       
17              214.304000      254.978944      148.885772      0.100188        1.712581       
18              232.813000      278.289346      153.521501      0.100125        1.812706       
19              255.093000      303.833084      158.838651      0.100135        1.912841       
20              275.499000      331.421002      164.642057      0.100138        2.012979       
21              293.633000      360.819245      170.753673      0.100119        2.113098       
22              308.995000      391.759532      177.008053      0.100132        2.213230       
23              318.398000      423.642953      183.128294      0.100137        2.313367       
24              317.874000      455.475173      188.719148      0.100141        2.413508       
25              317.318000      487.252032      193.842433      0.100142        2.513650       
26              318.150000      519.112209      198.605019      0.100142        2.613792       
27              318.816000      551.037168      203.040452      0.100136        2.713928       
28              318.249000      582.897076      207.139021      0.100110        2.814038       
29              317.416000      614.673274      210.927340      0.100109        2.914147       
30              318.196000      646.537421      214.490996      0.100140        3.014287       
31              318.720000      678.461692      217.843110      0.100164        3.114451       
32              318.274000      710.354338      220.973671      0.100205        3.214656       
33              317.273000      742.120028      223.882339      0.100121        3.314777       
34              317.703000      773.933535      226.633456      0.100136        3.414913       
35              318.369000      805.817872      229.247129      0.100149        3.515062       
36              318.053000      837.668972      231.707120      0.100144        3.615206       
37              317.046000      869.415105      234.007064      0.100131        3.715337       
38              317.046000      901.177724      236.187394      0.100183        3.815520       
39              315.633000      932.820880      238.221388      0.100253        3.915773       
40              316.065000      964.468152      240.162273      0.100129        4.015902       
41              315.743000      996.084761      242.000984      0.100134        4.116036       
42              314.889000      1027.632861     243.732985      0.100188        4.216224       
43              315.177000      1059.228724     245.392238      0.100248        4.316472       
44              315.595000      1090.855446     246.985114      0.100213        4.416685       
45              315.459000      1122.457182     248.503758      0.100177        4.516862       
46              314.822000      1153.991958     249.942540      0.100167        4.617029       
47              314.663000      1185.506087     251.316642      0.100152        4.717181       
48              316.459000      1217.217494     252.671675      0.100207        4.817388       
49              316.821000      1248.944582     253.978030      0.100142        4.917530       
50              316.351000      1280.624288     255.222849      0.100141        5.017671       
51              315.988000      1312.267326     256.411838      0.100140        5.117811       
52              316.515000      1343.962505     257.565282      0.100138        5.217949       
53              316.797000      1375.684656     258.680554      0.100134        5.318083       
54              316.418000      1407.372969     259.747735      0.100147        5.418230       
55              315.917000      1439.003527     260.766850      0.100123        5.518353       
56              316.496000      1470.691740     261.759951      0.100122        5.618475       
57              316.772000      1502.416772     262.723384      0.100151        5.718626       
58              316.538000      1534.110772     263.649406      0.100127        5.818753       
59              315.886000      1565.737279     264.533008      0.100120        5.918873       
60              316.332000      1597.408439     265.394633      0.100120        6.018993       
61              316.723000      1629.119062     266.234468      0.100121        6.119114       
62              316.445000      1660.802485     267.042804      0.100123        6.219237       
63              316.011000      1692.443086     267.818664      0.100125        6.319362       
64              316.374000      1724.119717     268.575976      0.100124        6.419486       
65              316.787000      1755.836748     269.316348      0.100121        6.519607       
66              316.592000      1787.530773     270.031298      0.100110        6.619717       
67              316.041000      1819.174378     270.716838      0.100125        6.719842       
68              316.296000      1850.840352     271.385927      0.100115        6.819957       
69              316.296000      1882.504428     272.035618      0.100109        6.920066       
70              316.795000      1914.215291     272.673832      0.100099        7.020165       
71              316.795000      1945.938509     273.294340      0.100138        7.120303       
72              316.258000      1977.608585     273.890201      0.100140        7.220443       
73              316.258000      2009.277396     274.469737      0.100136        7.320579       
74              316.874000      2041.001236     275.041827      0.100115        7.420694       
75              316.821000      2072.725474     275.598079      0.100133        7.520827       
76              316.237000      2104.390601     276.132030      0.100131        7.620958       
77              316.296000      2136.056575     276.652814      0.100115        7.721073       
78              316.880000      2167.815556     277.168295      0.100224        7.821297       
79              316.893000      2199.536545     277.670283      0.100100        7.921397       
80              316.362000      2231.210076     278.153201      0.100118        8.021515       
81              316.295000      2262.879745     278.623429      0.100127        8.121642       
82              316.692000      2294.582198     279.086938      0.100105        8.221747       
83              316.760000      2326.300010     279.540235      0.100132        8.321879       
84              316.216000      2357.953232     279.976147      0.100100        8.421979       
85              316.155000      2389.607303     280.401195      0.100122        8.522101       
86              316.591000      2421.328455     280.821741      0.100196        8.622297       
87              316.780000      2453.047003     281.234519      0.100128        8.722425       
88              316.290000      2484.715855     281.632360      0.100126        8.822551       
89              316.128000      2516.367539     282.019442      0.100123        8.922674       
90              316.440000      2548.059638     282.401505      0.100152        9.022826       
91              316.914000      2579.793504     282.780315      0.100134        9.122960       
92              316.538000      2611.490986     283.146833      0.100138        9.223098       
93              316.187000      2643.165335     283.501840      0.100176        9.323274       
94              316.677000      2674.873570     283.854342      0.100128        9.423402       
95              316.955000      2706.608689     284.202343      0.100125        9.523527       
96              316.652000      2738.313154     284.539948      0.100124        9.623651       
97              316.216000      2769.978392     284.866156      0.100138        9.723789       
98              316.657000      2801.689374     285.190225      0.100143        9.823932       
99              316.927000      2833.421056     285.510414      0.100123        9.924055       
100             316.763000      2865.138852     285.822595      0.100131        10.024186      
101             316.228000      2896.815094     286.123422      0.100169        10.124355      
102             316.569000      2928.514731     286.421595      0.100135        10.224490      
103             316.979000      2960.256057     286.717966      0.100137        10.324627      
104             316.866000      2991.988603     287.007582      0.100145        10.424772      
105             316.320000      3023.678173     287.286593      0.100182        10.524954      
106             316.494000      3055.376946     287.561912      0.100156        10.625110      
107             316.878000      3087.179456     287.836233      0.100362        10.725472      
108             316.785000      3118.906741     288.104054      0.100154        10.825626      
109             316.254000      3150.591597     288.362185      0.100188        10.925814      
110             316.254000      3182.269179     288.615567      0.100165        11.025979      
111             316.275000      3213.941590     288.864519      0.100142        11.126121      
112             316.814000      3245.666710     289.113828      0.100138        11.226259      
113             316.814000      3277.399751     289.358789      0.100163        11.326422      
114             316.168000      3309.068086     289.593793      0.100163        11.426585      
115             316.168000      3340.735473     289.824705      0.100160        11.526745      
116             316.644000      3372.445786     290.055706      0.100145        11.626890      
117             316.820000      3404.170557     290.284241      0.100135        11.727025      
118             316.357000      3435.848965     290.504987      0.100135        11.827160      
119             316.155000      3467.529277     290.720480      0.100205        11.927365      
120             316.583000      3499.260708     290.936003      0.100231        12.027596      
121             316.853000      3531.020151     291.150202      0.100234        12.127830      
122             316.435000      3562.731685     291.357423      0.100215        12.228045      
123             315.974000      3594.409342     291.557606      0.100254        12.328299      
124             316.369000      3626.088952     291.757510      0.100135        12.428434      
125             316.686000      3657.869026     291.957180      0.100352        12.528786      
126             316.444000      3689.601397     292.151611      0.100278        12.629064      
127             315.946000      3721.236438     292.338778      0.100128        12.729192      
128             316.320000      3752.908611     292.525941      0.100127        12.829319      
129             316.657000      3784.637959     292.712951      0.100201        12.929520      
130             316.513000      3816.329139     292.895842      0.100126        13.029646      
131             315.931000      3848.018282     293.071815      0.100304        13.129950      
132             316.319000      3879.721038     293.247922      0.100224        13.230174      
133             316.803000      3911.467550     293.424994      0.100209        13.330383      
134             316.708000      3943.194090     293.598657      0.100176        13.430559      
135             316.204000      3974.858126     293.765955      0.100138        13.530697      
136             316.427000      4006.565694     293.932543      0.100205        13.630902      
137             316.824000      4038.291816     294.099487      0.100138        13.731040      
138             316.813000      4070.015885     294.263928      0.100135        13.831175      
139             316.333000      4101.687145     294.422532      0.100120        13.931295      
140             316.293000      4133.355666     294.578593      0.100124        14.031419      
141             316.777000      4165.114777     294.736079      0.100257        14.131676      
142             316.766000      4196.906680     294.891434      0.100364        14.232040      
143             316.328000      4228.569531     295.041146      0.100095        14.332135      
144             316.160000      4260.212089     295.187600      0.100084        14.432219      
145             316.591000      4291.911396     295.335068      0.100127        14.532346      
146             316.740000      4323.658246     295.481687      0.100230        14.632576      
147             316.297000      4355.331595     295.623169      0.100138        14.732714      
148             316.019000      4387.005547     295.760986      0.100228        14.832942      
149             316.409000      4418.703085     295.899503      0.100179        14.933121      
150             316.742000      4450.416244     296.038316      0.100123        15.033244      
151             316.331000      4482.249265     296.173252      0.100632        15.133876      
152             316.040000      4514.121583     296.304763      0.100849        15.234725      
153             316.475000      4545.863393     296.436686      0.100298        15.335023      
154             316.815000      4577.643739     296.569121      0.100312        15.435335      
155             316.683000      4609.402610     296.698961      0.100286        15.535621      
156             316.144000      4641.370143     296.824705      0.101117        15.636738      
157             316.560000      4673.089772     296.950364      0.100201        15.736939      
158             316.836000      4704.856066     297.076255      0.100261        15.837200      
159             316.836000      4736.595112     297.200456      0.100175        15.937375      
160             316.608000      4768.285673     297.321583      0.100094        16.037469      
161             316.184000      4799.963516     297.438687      0.100188        16.137657      
162             316.487000      4831.684058     297.556262      0.100227        16.237884      
163             316.826000      4863.424004     297.674419      0.100181        16.338065      
164             316.725000      4895.133561     297.790447      0.100117        16.438182      
165             316.266000      4926.796215     297.902288      0.100114        16.538296      
166             316.445000      4958.495777     298.013927      0.100174        16.638470      
167             316.803000      4990.213459     298.126309      0.100118        16.738588      
168             316.787000      5021.935242     298.237280      0.100136        16.838724      
169             316.379000      5053.629458     298.344571      0.100178        16.938902      
170             316.306000      5085.317309     298.450175      0.100181        17.039083      
171             316.760000      5117.046842     298.557186      0.100169        17.139252      
172             316.850000      5148.761309     298.663395      0.100093        17.239345      
173             316.335000      5180.428973     298.765421      0.100108        17.339453      
174             316.234000      5212.083364     298.865685      0.100098        17.439551      
175             316.726000      5243.786686     298.967612      0.100097        17.539648      
176             316.795000      5275.504518     299.068798      0.100121        17.639769      
177             316.397000      5307.188514     299.166614      0.100140        17.739909      
178             316.231000      5338.842921     299.262361      0.100099        17.840008      
179             316.720000      5370.547543     299.359772      0.100103        17.940111      
180             316.810000      5402.258323     299.456593      0.100094        18.040205      
181             316.428000      5433.931817     299.550240      0.100097        18.140302      
182             316.183000      5465.580786     299.641515      0.100097        18.240399      
183             316.605000      5497.269464     299.734089      0.100089        18.340488      
184             316.753000      5528.985942     299.826499      0.100130        18.440618      
185             316.469000      5560.688857     299.916420      0.100177        18.540795      
186             316.167000      5592.341600     300.003696      0.100114        18.640909      
187             316.477000      5624.019998     300.091681      0.100097        18.741006      
188             316.776000      5655.759687     300.180407      0.100196        18.841202      
189             316.609000      5687.452564     300.267229      0.100101        18.941303      
190             316.173000      5719.111599     300.350872      0.100132        19.041435      
191             316.378000      5750.796223     300.434725      0.100148        19.141583      
192             316.757000      5782.508983     300.519652      0.100117        19.241700      
193             316.590000      5814.199959     300.602822      0.100101        19.341801      
194             316.213000      5845.852248     300.683192      0.100098        19.441899      
195             316.372000      5877.518870     300.763549      0.100093        19.541992      
196             316.729000      5909.220593     300.844905      0.100091        19.642083      
197             316.729000      5940.922315     300.925436      0.100091        19.742174      
198             316.560000      5972.611237     301.004312      0.100104        19.842278      
199             316.151000      6004.257952     301.080340      0.100100        19.942378      
200             316.691000      6035.952388     301.158290      0.100080        20.042458      
201             316.691000      6067.640806     301.235452      0.100061        20.142519      
202             316.229000      6099.291534     301.309586      0.100088        20.242607      
203             316.229000      6130.943843     301.382995      0.100093        20.342700      
204             316.230000      6162.604158     301.455707      0.100118        20.442818      
205             316.559000      6194.292031     301.529302      0.100101        20.542919      
206             316.622000      6225.986843     301.602490      0.100103        20.643022      
207             316.273000      6257.653677     301.673303      0.100125        20.743147      
