#timestep       power           acc-energy      avg-power       dt              acc-time       
1               123.255000      12.346700       123.255000      0.100172        0.100172       
2               123.152000      25.218054       123.202407      0.104516        0.204688       
3               123.101000      37.802300       123.168630      0.102227        0.306915       
4               123.082000      50.391620       123.146976      0.102284        0.409199       
5               123.038000      62.976069       123.125184      0.102281        0.511480       
6               122.974000      75.555326       123.099988      0.102292        0.613772       
7               122.881000      88.129001       123.068696      0.102324        0.716096       
8               122.787000      100.705951      123.033445      0.102429        0.818525       
9               122.753000      113.265178      123.002285      0.102313        0.920838       
10              122.719000      125.827677      122.973944      0.102368        1.023206       
11              122.564000      138.371735      122.936667      0.102347        1.125553       
12              122.564000      151.219629      122.904917      0.104826        1.230379       
13              149.800000      166.639891      124.981355      0.102939        1.333318       
14              171.826000      184.326285      128.338579      0.102932        1.436250       
15              203.993000      205.319816      133.397058      0.102913        1.539163       
16              231.062000      229.098407      139.517796      0.102910        1.642073       
17              258.194000      255.668893      146.516636      0.102909        1.744982       
18              285.528000      285.070282      154.262651      0.102972        1.847954       
19              312.624000      317.249921      162.618213      0.102934        1.950888       
20              344.910000      352.766338      171.757650      0.102973        2.053861       
21              369.538000      390.809536      181.198027      0.102948        2.156809       
22              394.219000      431.357326      190.894370      0.102856        2.259665       
23              394.313000      471.938837      199.755537      0.102917        2.362582       
24              394.383000      512.539778      207.882191      0.102948        2.465530       
25              394.465000      553.139299      215.358934      0.102923        2.568453       
26              394.751000      593.753651      222.268177      0.102886        2.671339       
27              394.677000      634.371834      228.663934      0.102915        2.774254       
28              394.618000      674.954744      234.595918      0.102841        2.877095       
29              394.751000      715.548173      240.122638      0.102833        2.979928       
30              394.583000      756.131035      245.275863      0.102850        3.082778       
31              394.677000      797.647898      250.205585      0.105192        3.187970       
32              394.952000      838.292803      254.732032      0.102911        3.290881       
33              394.849000      878.909735      258.979080      0.102867        3.393748       
34              394.982000      919.548643      262.980946      0.102888        3.496636       
35              395.053000      960.217374      266.758096      0.102945        3.599581       
36              395.075000      1000.867036     270.323999      0.102891        3.702472       
37              395.324000      1041.543108     273.703865      0.102893        3.805365       
38              395.389000      1082.239312     276.908509      0.102927        3.908292       
39              395.443000      1122.935538     279.949675      0.102913        4.011205       
40              395.859000      1163.687242     282.849979      0.102945        4.114150       
41              395.897000      1205.343525     285.669075      0.105220        4.219370       
42              395.897000      1246.101121     288.294509      0.102950        4.322320       
43              396.129000      1286.879036     290.802969      0.102941        4.425261       
44              395.994000      1327.604247     293.192084      0.102843        4.528104       
45              396.053000      1368.364438     295.477981      0.102916        4.631020       
46              396.432000      1409.173544     297.673247      0.102941        4.733961       
47              396.358000      1449.975826     299.773538      0.102943        4.836904       
48              396.481000      1490.777685     301.788222      0.102910        4.939814       
49              396.697000      1531.614468     303.725675      0.102942        5.042756       
50              396.660000      1572.466085     305.585699      0.102989        5.145745       
51              396.715000      1614.212008     307.411922      0.105229        5.250974       
52              396.911000      1655.095825     309.133791      0.103005        5.353979       
53              397.123000      1695.970901     310.793441      0.102928        5.456907       
54              397.361000      1736.875243     312.396230      0.102940        5.559847       
55              397.289000      1777.775351     313.939556      0.102948        5.662795       
56              397.653000      1818.697025     315.433699      0.102908        5.765703       
57              397.476000      1859.601281     316.872365      0.102910        5.868613       
58              397.300000      1900.490999     318.258531      0.102919        5.971532       
59              397.700000      1941.416716     319.604335      0.102906        6.074438       
60              397.565000      1983.508512     320.939867      0.105874        6.180312       
61              397.662000      2024.432704     322.196488      0.102912        6.283224       
62              397.895000      2065.367346     323.415966      0.102878        6.386102       
63              397.857000      2106.292906     324.596027      0.102865        6.488967       
64              397.984000      2147.270931     325.742325      0.102964        6.591931       
65              398.347000      2188.260439     326.858253      0.102899        6.694830       
66              398.376000      2229.250142     327.940763      0.102892        6.797722       
67              398.494000      2270.252385     328.992762      0.102893        6.900615       
68              399.010000      2311.334854     330.022099      0.102961        7.003576       
69              399.068000      2352.404538     331.022001      0.102914        7.106490       
70              399.157000      2393.485377     331.994672      0.102919        7.209409       
71              399.552000      2434.613662     332.945678      0.102936        7.312345       
72              399.152000      2475.705961     333.864842      0.102949        7.415294       
73              399.343000      2516.806343     334.761200      0.102920        7.518214       
74              399.588000      2557.958313     335.637211      0.102986        7.621200       
75              399.264000      2599.032197     336.484632      0.102874        7.724074       
76              399.840000      2640.184530     337.317731      0.102922        7.826996       
77              399.715000      2681.310007     338.127310      0.102887        7.929883       
78              399.254000      2722.394042     338.910358      0.102902        8.032785       
79              399.684000      2763.535515     339.679280      0.102935        8.135720       
80              399.874000      2804.668154     340.430850      0.102864        8.238584       
81              399.946000      2845.829396     341.165145      0.102917        8.341501       
82              400.289000      2887.039549     341.885956      0.102951        8.444452       
83              400.508000      2928.275052     342.592090      0.102958        8.547410       
84              400.709000      2969.514820     343.283534      0.102917        8.650327       
85              400.947000      3010.781889     343.961562      0.102924        8.753251       
86              401.101000      3052.052775     344.625430      0.102894        8.856145       
87              401.622000      3093.391326     345.280252      0.102929        8.959074       
88              401.622000      3134.743130     345.920401      0.102962        9.062036       
89              401.855000      3178.919051     346.590802      0.109930        9.171966       
90              402.120000      3220.316098     347.207149      0.102947        9.274913       
91              401.489000      3261.631725     347.802802      0.102906        9.377819       
92              402.159000      3303.033994     348.393046      0.102950        9.480769       
93              402.191000      3344.408991     348.970531      0.102874        9.583643       
94              401.839000      3385.763046     349.532217      0.102912        9.686555       
95              401.927000      3427.129775     350.083066      0.102921        9.789476       
96              402.261000      3468.526052     350.625865      0.102909        9.892385       
97              401.720000      3509.853399     351.151751      0.102876        9.995261       
98              402.629000      3551.269026     351.676116      0.102863        10.098124      
99              402.358000      3593.705322     352.199987      0.105469        10.203593      
100             402.325000      3635.125485     352.700685      0.102952        10.306545      
101             403.028000      3676.608351     353.198318      0.102928        10.409473      
102             402.461000      3718.032455     353.680649      0.102927        10.512400      
103             402.532000      3759.457425     354.154242      0.102911        10.615311      
104             402.969000      3800.959606     354.623298      0.102991        10.718302      
105             402.764000      3842.402813     355.081060      0.102897        10.821199      
106             403.100000      3883.877772     355.533333      0.102890        10.924089      
107             403.545000      3925.438871     355.981749      0.102990        11.027079      
108             403.451000      3966.965276     356.420735      0.102928        11.130007      
109             403.417000      4009.677454     356.863582      0.105876        11.235883      
110             404.230000      4051.269892     357.293406      0.102893        11.338776      
111             403.722000      4092.808444     357.710914      0.102889        11.441665      
112             404.225000      4134.425429     358.125727      0.102955        11.544620      
113             404.522000      4176.067733     358.535781      0.102942        11.647562      
114             403.988000      4217.820297     358.935539      0.103351        11.750913      
115             404.445000      4259.446990     359.330683      0.102923        11.853836      
116             403.587000      4300.974074     359.711536      0.102895        11.956731      
117             404.458000      4342.610194     360.093498      0.102943        12.059674      
118             404.058000      4387.743876     360.496976      0.111701        12.171375      
119             403.625000      4429.268413     360.858461      0.102879        12.274254      
120             404.145000      4470.879990     361.218548      0.102962        12.377216      
121             404.062000      4512.446656     361.571702      0.102872        12.480088      
122             403.932000      4554.021358     361.918195      0.102925        12.583013      
123             405.034000      4595.715152     362.268055      0.102939        12.685952      
124             404.665000      4637.374200     362.609338      0.102947        12.788899      
125             404.425000      4678.998026     362.943171      0.102921        12.891820      
126             404.965000      4720.819166     363.277115      0.103271        12.995091      
127             404.994000      4762.671651     363.606243      0.103341        13.098432      
128             405.295000      4805.333813     363.938593      0.105262        13.203694      
129             405.785000      4847.121958     364.262444      0.102981        13.306675      
130             404.983000      4888.822248     364.575123      0.102968        13.409643      
131             405.290000      4930.524563     364.885158      0.102895        13.512538      
132             405.959000      4972.316824     365.195718      0.102947        13.615485      
133             405.379000      5014.027080     365.497105      0.102892        13.718377      
134             405.320000      5055.743425     365.793651      0.102922        13.821299      
135             405.777000      5097.501124     366.089151      0.102908        13.924207      
136             404.857000      5139.186011     366.373715      0.102962        14.027169      
137             405.294000      5180.902517     366.657225      0.102929        14.130098      
138             405.687000      5223.568213     366.945573      0.105169        14.235267      
139             405.235000      5265.270542     367.220387      0.102909        14.338176      
140             405.235000      5306.986648     367.491373      0.102943        14.441119      
141             405.578000      5348.719002     367.760828      0.102896        14.544015      
142             404.963000      5390.391315     368.022197      0.102904        14.646919      
143             405.534000      5432.136174     368.283989      0.102938        14.749857      
144             405.512000      5473.864980     368.541915      0.102904        14.852761      
145             406.024000      5515.651346     368.799844      0.102916        14.955677      
146             405.786000      5557.420928     369.052668      0.102935        15.058612      
147             405.982000      5599.211497     369.303394      0.102937        15.161549      
148             406.938000      5644.320575     369.576553      0.110850        15.272399      
149             405.858000      5686.086610     369.819387      0.102908        15.375307      
150             406.454000      5727.931049     370.063054      0.102950        15.478257      
151             407.081000      5769.817649     370.307513      0.102895        15.581152      
152             405.946000      5811.595987     370.541366      0.102916        15.684068      
153             406.378000      5853.388307     370.774818      0.102841        15.786909      
154             406.996000      5895.287324     371.009487      0.102947        15.889856      
155             405.911000      5937.077485     371.234166      0.102954        15.992810      
156             406.317000      5978.889130     371.458460      0.102904        16.095714      
157             406.778000      6020.758789     371.682888      0.102930        16.198644      
158             405.801000      6062.560350     371.898480      0.103010        16.301654      
159             406.979000      6104.451920     372.118598      0.102933        16.404587      
160             406.766000      6146.345157     372.334764      0.102991        16.507578      
161             403.124000      6187.841935     372.525570      0.102938        16.610516      
162             403.128000      6229.326628     372.713993      0.102907        16.713423      
163             403.442000      6270.836372     372.902000      0.102889        16.816312      
164             402.382000      6312.262404     373.081382      0.102952        16.919264      
165             403.225000      6353.788127     373.263750      0.102984        17.022248      
166             403.530000      6395.328313     373.445685      0.102942        17.125190      
167             402.814000      6436.775859     373.621088      0.102895        17.228085      
168             403.787000      6478.344923     373.800276      0.102948        17.331033      
169             403.594000      6519.897751     373.976224      0.102957        17.433990      
170             403.225000      6561.403716     374.147903      0.102935        17.536925      
171             407.641000      6603.401745     374.343521      0.103027        17.639952      
172             407.005000      6645.297212     374.533008      0.102936        17.742888      
173             406.858000      6687.217826     374.719639      0.103035        17.845923      
174             407.738000      6729.196084     374.909031      0.102954        17.948877      
175             406.842000      6771.075179     375.091123      0.102937        18.051814      
176             407.802000      6813.062065     375.276632      0.102959        18.154773      
177             407.193000      6854.949195     375.456457      0.102868        18.257641      
178             407.040000      6896.841345     375.633496      0.102919        18.360560      
179             407.497000      6938.779713     375.811106      0.102917        18.463477      
180             406.242000      6980.600296     375.979836      0.102945        18.566422      
181             406.735000      7022.469597     376.149415      0.102940        18.669362      
182             406.841000      7064.345741     376.317700      0.102930        18.772292      
183             406.523000      7106.169640     376.482338      0.102882        18.875174      
184             407.035000      7148.060054     376.648022      0.102916        18.978090      
185             406.691000      7189.915065     376.810063      0.102916        19.081006      
186             405.464000      7232.561769     376.967145      0.105180        19.186186      
187             405.730000      7274.324369     377.120632      0.102932        19.289118      
188             405.564000      7316.088133     377.271673      0.102977        19.392095      
189             405.522000      7357.818375     377.420794      0.102905        19.495000      
190             406.193000      7399.616853     377.571868      0.102903        19.597903      
191             405.637000      7441.371097     377.718506      0.102935        19.700838      
192             405.935000      7483.163324     377.865194      0.102953        19.803791      
193             406.983000      7525.054898     378.015754      0.102932        19.906723      
194             405.811000      7566.827053     378.158740      0.102935        20.009658      
195             406.448000      7608.657055     378.303496      0.102916        20.112574      
196             408.052000      7651.864866     378.459295      0.105888        20.218462      
197             407.370000      7693.789349     378.605709      0.102915        20.321377      
198             407.247000      7735.708097     378.750052      0.102932        20.424309      
199             407.945000      7777.708891     378.896483      0.102957        20.527266      
200             407.396000      7819.644198     379.038682      0.102935        20.630201      
201             407.245000      7861.565998     379.178726      0.102940        20.733141      
202             407.731000      7903.523557     379.319740      0.102905        20.836046      
203             406.511000      7945.371425     379.453423      0.102944        20.938990      
204             407.748000      7987.359275     379.591891      0.102975        21.041965      
205             407.521000      8029.326196     379.727912      0.102981        21.144946      
206             406.511000      8071.163495     379.857641      0.102918        21.247864      
207             407.683000      8113.127529     379.991788      0.102933        21.350797      
