#timestep       power           acc-energy      avg-power       dt              acc-time       
1               121.056000      12.121700       121.056000      0.100133        0.100133       
2               121.019000      24.523970       121.037286      0.102482        0.202615       
3               120.969000      36.892566       121.014384      0.102246        0.304861       
4               120.939000      49.253257       120.995456      0.102206        0.407067       
5               120.904000      61.614120       120.977097      0.102237        0.509304       
6               120.807000      74.574899       120.947501      0.107285        0.616589       
7               120.769000      86.917974       120.922120      0.102204        0.718793       
8               120.801000      99.276641       120.907029      0.102306        0.821099       
9               120.769000      111.614885      120.891755      0.102164        0.923263       
10              120.769000      123.963394      120.879516      0.102249        1.025512       
11              120.634000      136.295567      120.857260      0.102228        1.127740       
12              120.569000      148.624470      120.833296      0.102256        1.229996       
13              146.827000      163.651039      122.829972      0.102342        1.332338       
14              173.582000      181.416289      126.450435      0.102345        1.434683       
15              199.908000      201.882070      131.343085      0.102376        1.537059       
16              226.344000      225.044757      137.273221      0.102334        1.639393       
17              252.951000      250.941881      144.072667      0.102380        1.741773       
18              279.603000      279.557850      151.594339      0.102345        1.844118       
19              306.219000      310.905489      159.726384      0.102370        1.946488       
20              333.022000      344.972973      168.379213      0.102298        2.048786       
21              359.874000      382.481201      177.649359      0.104226        2.153012       
22              413.548000      424.802049      188.353216      0.102336        2.255348       
23              413.947000      467.188980      198.150767      0.102397        2.357745       
24              414.128000      509.572496      207.135797      0.102344        2.460089       
25              414.752000      552.050152      215.433701      0.102417        2.562506       
26              414.860000      594.502361      223.091621      0.102329        2.664835       
27              415.308000      637.018686      230.202676      0.102373        2.767208       
28              415.990000      679.603583      236.830497      0.102370        2.869578       
29              415.866000      722.161646      242.995472      0.102336        2.971914       
30              415.876000      764.721980      248.750503      0.102339        3.074253       
31              415.833000      807.294131      254.135318      0.102378        3.176631       
32              415.730000      850.049051      259.202863      0.102843        3.279474       
33              415.773000      892.614643      263.942629      0.102377        3.381851       
34              415.798000      935.177806      268.404084      0.102365        3.484216       
35              415.439000      978.626909      272.689022      0.104586        3.588802       
36              415.592000      1021.172309     276.652369      0.102373        3.691175       
37              415.532000      1063.711982     280.400222      0.102374        3.793549       
38              415.474000      1106.273138     283.951813      0.102440        3.895989       
39              415.105000      1148.766192     287.309632      0.102367        3.998356       
40              415.409000      1191.291196     290.507458      0.102369        4.100725       
41              415.503000      1233.822914     293.551600      0.102362        4.203087       
42              415.610000      1276.354779     296.452817      0.102336        4.305423       
43              415.578000      1318.904563     299.219922      0.102387        4.407810       
44              415.713000      1361.448632     301.863271      0.102340        4.510150       
45              415.621000      1405.853995     304.495719      0.106841        4.616991       
46              415.925000      1448.420176     306.912117      0.102341        4.719332       
47              416.200000      1491.032396     309.232729      0.102384        4.821716       
48              416.446000      1533.678133     311.462380      0.102404        4.924120       
49              416.513000      1576.319484     313.601994      0.102377        5.026497       
50              416.502000      1618.958043     315.655894      0.102373        5.128870       
51              416.534000      1661.583634     317.629294      0.102334        5.231204       
52              416.239000      1704.254375     319.524590      0.102515        5.333719       
53              416.459000      1746.889365     321.350103      0.102375        5.436094       
54              416.491000      1789.530130     323.108821      0.102381        5.538475       
55              416.633000      1832.151686     324.804958      0.102300        5.640775       
56              416.756000      1874.945025     326.448866      0.102682        5.743457       
57              416.860000      1917.590637     328.031080      0.102302        5.845759       
58              416.655000      1960.242359     329.556294      0.102367        5.948126       
59              416.542000      2002.866686     331.027449      0.102329        6.050455       
60              416.763000      2045.516127     332.453428      0.102335        6.152790       
61              416.776000      2088.185654     333.833558      0.102380        6.255170       
62              416.852000      2130.857543     335.170294      0.102367        6.357537       
63              416.750000      2173.516490     336.462974      0.102361        6.459898       
64              416.784000      2216.182668     337.715965      0.102370        6.562268       
65              416.593000      2258.809297     338.926970      0.102322        6.664590       
66              416.848000      2301.532048     340.107114      0.102490        6.767080       
67              416.990000      2344.223067     341.252938      0.102379        6.869459       
68              417.082000      2386.881797     342.365390      0.102279        6.971738       
69              417.148000      2429.561878     343.446992      0.102314        7.074052       
70              417.353000      2472.247073     344.500289      0.102276        7.176328       
71              417.082000      2514.942506     345.521073      0.102367        7.278695       
72              417.510000      2557.692190     346.519719      0.102392        7.381087       
73              417.888000      2600.474728     347.496077      0.102378        7.483465       
74              418.320000      2644.224307     348.472223      0.104584        7.588049       
75              418.085000      2687.027013     349.398936      0.102378        7.690427       
76              418.185000      2729.880521     350.303458      0.102475        7.792902       
77              418.074000      2772.685863     351.182314      0.102387        7.895289       
78              417.657000      2815.439740     352.033157      0.102366        7.997655       
79              417.780000      2858.188661     352.863712      0.102324        8.099979       
80              417.644000      2900.937865     353.672114      0.102358        8.202337       
81              417.708000      2943.696962     354.461437      0.102366        8.304703       
82              417.438000      2986.428003     355.228244      0.102365        8.407068       
83              417.494000      3029.162689     355.977239      0.102360        8.509428       
84              417.371000      3074.404036     356.749457      0.108396        8.617824       
85              417.135000      3117.098220     357.458218      0.102351        8.720175       
86              417.270000      3159.837935     358.152610      0.102427        8.822602       
87              417.552000      3202.586073     358.833978      0.102378        8.924980       
88              417.468000      3245.322690     359.498893      0.102371        9.027351       
89              417.713000      3288.082299     360.151612      0.102366        9.129717       
90              417.808000      3330.837427     360.790701      0.102332        9.232049       
91              417.661000      3373.593801     361.414400      0.102371        9.334420       
92              417.803000      3416.366801     362.026137      0.102376        9.436796       
93              418.114000      3459.166623     362.628012      0.102364        9.539160       
94              418.354000      3501.962982     363.219271      0.102297        9.641457       
95              418.477000      3544.802472     363.799816      0.102370        9.743827       
96              418.650000      3587.663022     364.370133      0.102378        9.846205       
97              418.841000      3630.543964     364.930687      0.102380        9.948585       
98              418.720000      3673.389906     365.478304      0.102326        10.050911      
99              418.723000      3716.244112     366.015012      0.102345        10.153256      
100             418.887000      3759.110494     366.542587      0.102334        10.255590      
101             419.211000      3802.034347     367.063232      0.102392        10.357982      
102             419.189000      3844.954270     367.573448      0.102388        10.460370      
103             419.189000      3887.869582     368.073720      0.102377        10.562747      
104             418.919000      3930.728766     368.561475      0.102309        10.665056      
105             418.416000      3973.608456     369.035970      0.102481        10.767537      
106             418.535000      4016.448025     369.502076      0.102356        10.869893      
107             418.314000      4059.258280     369.957353      0.102340        10.972233      
108             418.244000      4102.059279     370.403548      0.102335        11.074568      
109             418.211000      4144.875303     370.841456      0.102379        11.176947      
110             418.226000      4188.329821     371.277891      0.103902        11.280849      
111             418.055000      4231.252782     371.699794      0.102673        11.383522      
112             418.185000      4274.058617     372.114065      0.102361        11.485883      
113             418.520000      4317.834972     372.532854      0.104598        11.590481      
114             418.655000      4360.693522     372.936658      0.102372        11.692853      
115             418.753000      4403.607329     373.334719      0.102480        11.795333      
116             418.876000      4446.494367     373.726625      0.102386        11.897719      
117             418.448000      4489.327123     374.108100      0.102361        12.000080      
118             418.758000      4532.194542     374.485769      0.102368        12.102448      
119             418.817000      4575.065069     374.857572      0.102361        12.204809      
120             419.087000      4617.950661     375.225329      0.102331        12.307140      
121             419.027000      4660.857349     375.586754      0.102396        12.409536      
122             419.152000      4703.760910     375.943155      0.102358        12.511894      
123             419.076000      4747.934035     376.303491      0.105406        12.617300      
124             418.672000      4790.793068     376.644476      0.102369        12.719669      
125             418.785000      4833.674559     376.981004      0.102395        12.822064      
126             418.712000      4876.545643     377.311598      0.102388        12.924452      
127             418.939000      4919.432009     377.638720      0.102369        13.026821      
128             418.858000      4962.312178     377.960125      0.102374        13.129195      
129             418.917000      5005.210955     378.277104      0.102404        13.231599      
130             418.571000      5048.062161     378.586471      0.102375        13.333974      
131             418.571000      5090.910018     378.891100      0.102367        13.436341      
132             418.545000      5133.756051     379.190931      0.102369        13.538710      
133             418.804000      5177.555411     379.494583      0.104582        13.643292      
134             418.657000      5220.393233     379.786107      0.102322        13.745614      
135             418.903000      5263.293927     380.075393      0.102412        13.848026      
136             419.007000      5306.193121     380.361115      0.102383        13.950409      
137             418.959000      5349.081535     380.642285      0.102369        14.052778      
138             419.261000      5392.001702     380.921579      0.102371        14.155149      
139             419.396000      5434.931077     381.197801      0.102360        14.257509      
140             419.764000      5477.893922     381.472682      0.102350        14.359859      
141             419.702000      5520.860915     381.743299      0.102375        14.462234      
142             420.035000      5563.860738     382.012444      0.102372        14.564606      
143             419.795000      5608.090759     382.283802      0.105361        14.669967      
144             420.129000      5651.097264     382.546051      0.102365        14.772332      
145             420.201000      5694.114921     382.805208      0.102374        14.874706      
146             420.466000      5737.162230     383.062648      0.102380        14.977086      
147             420.433000      5780.198593     383.316325      0.102362        15.079448      
148             420.551000      5823.254604     383.567420      0.102380        15.181828      
149             420.457000      5866.308139     383.814563      0.102397        15.284225      
150             420.092000      5909.317158     384.055947      0.102380        15.386605      
151             419.989000      5952.316472     384.293464      0.102382        15.488987      
152             419.892000      5996.283783     384.532507      0.104711        15.593698      
153             419.925000      6039.282424     384.763396      0.102396        15.696094      
154             419.828000      6082.252659     384.990565      0.102352        15.798446      
155             419.899000      6125.240239     385.215320      0.102376        15.900822      
156             419.912000      6168.216973     385.437220      0.102347        16.003169      
157             419.612000      6211.171394     385.654435      0.102367        16.105536      
158             419.531000      6254.111231     385.868364      0.102352        16.207888      
159             419.672000      6297.077670     386.080553      0.102381        16.310269      
160             419.699000      6340.026728     386.290165      0.102333        16.412602      
161             419.731000      6383.000467     386.497480      0.102384        16.514986      
162             419.883000      6425.959956     386.703035      0.102313        16.617299      
163             419.829000      6468.942049     386.905876      0.102380        16.719679      
164             419.819000      6511.934453     387.106240      0.102407        16.822086      
165             419.907000      6554.920753     387.304642      0.102371        16.924457      
166             420.093000      6597.944157     387.501859      0.102414        17.026871      
167             420.125000      6640.951513     387.696821      0.102368        17.129239      
168             420.212000      6683.972818     387.890007      0.102380        17.231619      
169             420.093000      6726.989501     388.080241      0.102398        17.334017      
170             419.908000      6769.973383     388.267095      0.102365        17.436382      
171             420.060000      6812.998029     388.452762      0.102425        17.538807      
172             420.031000      6855.977701     388.635928      0.102325        17.641132      
173             420.029000      6898.980270     388.817066      0.102380        17.743512      
174             419.931000      6941.971126     388.995556      0.102376        17.845888      
175             420.036000      6984.971892     389.172606      0.102374        17.948262      
176             419.948000      7027.964908     389.347153      0.102377        18.050639      
177             419.613000      7070.905585     389.517771      0.102334        18.152973      
178             419.635000      7113.860263     389.686646      0.102362        18.255335      
179             419.825000      7156.837748     389.854709      0.102370        18.357705      
180             419.802000      7199.802803     390.020743      0.102346        18.460051      
181             419.834000      7242.782469     390.185165      0.102373        18.562424      
182             419.918000      7285.748059     390.348159      0.102319        18.664743      
183             420.202000      7328.812881     390.511187      0.102486        18.767229      
184             420.266000      7371.857786     390.672694      0.102423        18.869652      
185             420.569000      7414.909752     390.834004      0.102366        18.972018      
186             420.569000      7457.956251     390.993562      0.102353        19.074371      
187             420.615000      7501.003252     391.151646      0.102343        19.176714      
188             420.672000      7544.071231     391.308410      0.102379        19.279093      
189             420.527000      7587.114272     391.462716      0.102355        19.381448      
190             420.891000      7630.201304     391.617337      0.102371        19.483819      
191             421.040000      7674.245457     391.774462      0.104608        19.588427      
192             421.407000      7717.385734     391.928521      0.102372        19.690799      
193             421.277000      7760.561992     392.080487      0.102489        19.793288      
194             421.289000      7803.683449     392.230754      0.102356        19.895644      
195             421.136000      7846.804407     392.378752      0.102392        19.998036      
196             420.861000      7889.889631     392.523816      0.102374        20.100410      
197             421.104000      7932.995521     392.668627      0.102364        20.202774      
198             421.073000      7976.101606     392.811832      0.102372        20.305146      
199             420.737000      8019.170769     392.951908      0.102366        20.407512      
200             420.504000      8062.200103     393.089371      0.102328        20.509840      
201             420.527000      8107.306670     393.232117      0.107262        20.617102      
202             420.375000      8150.338357     393.366217      0.102365        20.719467      
203             420.006000      8193.365451     393.497285      0.102444        20.821911      
204             420.311000      8236.397312     393.628483      0.102381        20.924292      
205             420.402000      8279.435126     393.758836      0.102373        21.026665      
206             420.341000      8322.467115     393.887631      0.102374        21.129039      
207             420.493000      8365.512143     394.015910      0.102368        21.231407      
