#timestep       power           acc-energy      avg-power       dt              acc-time       
1               137.587000      13.774935       137.587000      0.100118        0.100118       
2               137.568000      29.160953       137.576974      0.111843        0.211961       
3               137.518000      42.929118       137.558055      0.100119        0.312080       
4               137.532000      56.698822       137.551726      0.100120        0.412200       
5               137.496000      70.462171       137.540838      0.100100        0.512300       
6               137.410000      84.219111       137.519449      0.100116        0.612416       
7               137.304000      97.968184       137.489171      0.100136        0.712552       
8               137.247000      111.709354      137.459336      0.100120        0.812672       
9               137.274000      125.450893      137.439011      0.100103        0.912775       
10              137.159000      139.182566      137.411334      0.100115        1.012890       
11              133.987000      152.594799      137.103354      0.100101        1.112991       
12              133.946000      166.017662      136.842555      0.100211        1.213202       
13              142.830000      180.318944      137.299037      0.100128        1.313330       
14              160.598000      196.395928      138.949191      0.100107        1.413437       
15              178.596000      214.278209      141.571952      0.100127        1.513564       
16              195.262000      233.833308      144.903990      0.100148        1.613712       
17              218.108000      255.671154      149.180641      0.100124        1.713836       
18              232.386000      278.935084      153.772625      0.100109        1.813945       
19              251.683000      304.131572      158.893686      0.100112        1.914057       
20              269.264000      331.092169      164.380299      0.100127        2.014184       
21              287.028000      359.831708      170.188557      0.100128        2.114312       
22              311.668000      391.038090      176.585623      0.100127        2.214439       
23              313.671000      422.445026      182.515870      0.100127        2.314566       
24              313.795000      453.865947      187.959715      0.100132        2.414698       
25              313.918000      485.300440      192.975139      0.100136        2.514834       
26              314.011000      516.744246      197.610009      0.100136        2.614970       
27              314.090000      548.196590      201.905998      0.100138        2.715108       
28              314.198000      579.659749      205.900212      0.100138        2.815246       
29              314.224000      611.125512      209.620932      0.100138        2.915384       
30              314.317000      642.599959      213.097562      0.100136        3.015520       
31              314.321000      674.073235      216.350687      0.100131        3.115651       
32              314.327000      705.548370      219.401530      0.100135        3.215786       
33              314.400000      737.029870      222.270234      0.100132        3.315918       
34              314.448000      768.514291      224.972012      0.100126        3.416044       
35              314.448000      799.989907      227.519226      0.100098        3.516142       
36              314.467000      831.469626      229.926116      0.100105        3.616247       
37              314.516000      862.962427      232.205235      0.100131        3.716378       
38              314.520000      894.455629      234.364868      0.100131        3.816509       
39              314.554000      925.952865      236.414986      0.100133        3.916642       
40              314.599000      957.454292      238.363994      0.100132        4.016774       
41              314.645000      988.960955      240.219348      0.100134        4.116908       
42              314.627000      1020.465500     241.986146      0.100133        4.217041       
43              314.695000      1052.002974     243.673929      0.100216        4.317257       
44              314.750000      1083.517318     245.284949      0.100125        4.417382       
45              314.771000      1115.035968     246.825127      0.100132        4.517514       
46              314.851000      1146.562943     248.300258      0.100133        4.617647       
47              314.877000      1178.092207     249.713309      0.100132        4.717779       
48              314.923000      1209.618203     251.068249      0.100107        4.817886       
49              314.885000      1241.142285     252.367332      0.100113        4.917999       
50              314.949000      1272.679389     253.616114      0.100134        5.018133       
51              314.955000      1304.208589     254.815833      0.100107        5.118240       
52              315.013000      1335.749895     255.970861      0.100127        5.218367       
53              314.966000      1367.288071     257.081570      0.100132        5.318499       
54              314.966000      1398.816482     258.150903      0.100101        5.418600       
55              315.037000      1430.352001     259.182732      0.100101        5.518701       
56              315.011000      1461.892163     260.177557      0.100124        5.618825       
57              315.011000      1493.426024     261.137360      0.100104        5.718929       
58              315.021000      1524.961516     262.064331      0.100106        5.819035       
59              314.955000      1556.497645     262.959034      0.100129        5.919164       
60              314.955000      1588.033459     263.823961      0.100128        6.019292       
61              314.996000      1619.565504     264.661050      0.100103        6.119395       
62              314.998000      1651.104994     265.471407      0.100126        6.219521       
63              315.024000      1682.646772     266.256492      0.100125        6.319646       
64              314.992000      1714.184401     267.016565      0.100122        6.419768       
65              315.070000      1745.730469     267.754507      0.100124        6.519892       
66              314.999000      1777.271319     268.469096      0.100130        6.620022       
67              315.040000      1808.816275     269.163000      0.100130        6.720152       
68              315.040000      1840.361545     269.836537      0.100131        6.820283       
69              315.020000      1871.903867     270.490274      0.100128        6.920411       
70              315.063000      1903.435687     271.125683      0.100081        7.020492       
71              315.070000      1934.976085     271.743481      0.100106        7.120598       
72              315.083000      1966.530387     272.344565      0.100146        7.220744       
73              315.094000      1998.082640     272.929298      0.100136        7.320880       
74              315.101000      2029.691681     273.499343      0.100314        7.421194       
75              315.157000      2061.296886     274.054765      0.100284        7.521478       
76              315.149000      2092.854961     274.594684      0.100137        7.621615       
77              315.215000      2124.419015     275.121445      0.100135        7.721750       
78              315.225000      2155.980919     275.634796      0.100125        7.821875       
79              315.266000      2187.547242     276.135694      0.100126        7.922001       
80              315.273000      2219.116158     276.624204      0.100132        8.022133       
81              315.293000      2250.687392     277.100921      0.100133        8.122266       
82              315.306000      2282.259928     277.566186      0.100133        8.222399       
83              315.280000      2313.828284     278.019919      0.100128        8.322527       
84              315.292000      2345.398156     278.463012      0.100129        8.422656       
85              315.272000      2376.968549     278.895492      0.100137        8.522793       
86              315.298000      2408.567399     279.318572      0.100219        8.623012       
87              315.260000      2440.132806     279.731111      0.100125        8.723137       
88              315.305000      2471.692314     280.134667      0.100092        8.823229       
89              315.260000      2503.243850     280.528621      0.100081        8.923310       
90              315.286000      2534.810915     280.914281      0.100122        9.023432       
91              315.300000      2566.382535     281.291668      0.100132        9.123564       
92              315.267000      2597.960308     281.660612      0.100162        9.223726       
93              315.302000      2629.553253     282.022137      0.100199        9.323925       
94              315.322000      2661.116986     282.375841      0.100100        9.424025       
95              315.313000      2692.688330     282.722108      0.100127        9.524152       
96              315.354000      2724.262834     283.061587      0.100124        9.624276       
97              315.352000      2755.837138     283.394054      0.100124        9.724400       
98              315.378000      2787.413414     283.720003      0.100122        9.824522       
99              315.378000      2818.990005     284.039379      0.100123        9.924645       
100             315.403000      2850.569100     284.352625      0.100123        10.024768      
101             315.403000      2882.150402     284.659698      0.100130        10.124898      
102             315.386000      2913.729372     284.960583      0.100128        10.225026      
103             315.497000      2945.319455     285.256710      0.100128        10.325154      
104             315.405000      2976.900012     285.546261      0.100127        10.425281      
105             315.449000      3008.485289     285.830725      0.100128        10.525409      
106             315.426000      3040.067948     286.109609      0.100127        10.625536      
107             315.453000      3071.654573     286.383548      0.100131        10.725667      
108             315.456000      3103.241182     286.652445      0.100130        10.825797      
109             315.465000      3134.828692     286.916496      0.100130        10.925927      
110             315.428000      3166.411867     287.175410      0.100128        11.026055      
111             315.471000      3197.999032     287.430049      0.100127        11.126182      
112             315.437000      3229.582162     287.679836      0.100125        11.226307      
113             315.461000      3261.167063     287.925415      0.100123        11.326430      
114             315.476000      3292.755360     288.166837      0.100129        11.426559      
115             315.503000      3324.347937     288.404310      0.100134        11.526693      
116             315.484000      3355.938928     288.637531      0.100135        11.626828      
117             315.524000      3387.533923     288.867111      0.100135        11.726963      
118             315.497000      3419.125584     289.092571      0.100133        11.827096      
119             315.527000      3450.721196     289.314503      0.100136        11.927232      
120             315.520000      3482.314845     289.532673      0.100132        12.027364      
121             315.534000      3513.910211     289.747358      0.100133        12.127497      
122             315.528000      3545.492986     289.958398      0.100095        12.227592      
123             315.549000      3577.083858     290.166221      0.100114        12.327706      
124             315.569000      3608.682729     290.370895      0.100133        12.427839      
125             315.563000      3640.311924     290.572444      0.100231        12.528070      
126             315.563000      3671.907038     290.770583      0.100123        12.628193      
127             315.603000      3703.578115     290.966360      0.100351        12.728544      
128             315.609000      3735.195825     291.158795      0.100180        12.828724      
129             315.563000      3766.812713     291.347914      0.100192        12.928916      
130             315.569000      3798.405903     291.534029      0.100115        13.029031      
131             315.550000      3829.999400     291.717173      0.100122        13.129153      
132             315.565000      3861.651832     291.897984      0.100304        13.229457      
133             315.564000      3893.346765     292.076305      0.100439        13.329896      
134             315.529000      3924.947310     292.251197      0.100151        13.430047      
135             315.495000      3956.537508     292.423211      0.100129        13.530176      
136             315.517000      3988.146317     292.592947      0.100181        13.630357      
137             315.488000      4019.785978     292.760171      0.100288        13.730645      
138             315.516000      4051.416772     292.925113      0.100251        13.830896      
139             315.548000      4083.020798     293.087758      0.100156        13.931052      
140             315.614000      4114.622596     293.248508      0.100128        14.031180      
141             315.586000      4146.433665     293.407836      0.100800        14.131980      
142             315.599000      4178.205648     293.564801      0.100672        14.232652      
143             315.539000      4210.187418     293.720181      0.101356        14.334008      
144             315.539000      4241.928749     293.872235      0.100594        14.434602      
145             315.602000      4273.572899     294.022133      0.100266        14.534868      
146             315.616000      4305.210562     294.170037      0.100241        14.635109      
147             315.614000      4336.854969     294.315947      0.100263        14.735372      
148             315.648000      4368.623362     294.460660      0.100645        14.836017      
149             315.556000      4400.236708     294.602155      0.100183        14.936200      
150             315.563000      4431.849179     294.741804      0.100178        15.036378      
151             315.563000      4463.442399     294.879521      0.100117        15.136495      
152             315.564000      4495.040769     295.015457      0.100133        15.236628      
153             315.546000      4526.636075     295.149494      0.100129        15.336757      
154             315.594000      4558.291731     295.282336      0.100305        15.437062      
155             315.614000      4589.882799     295.413318      0.100094        15.537156      
156             315.588000      4621.475998     295.542475      0.100109        15.637265      
157             315.687000      4653.077214     295.670611      0.100103        15.737368      
158             315.654000      4684.680176     295.796939      0.100119        15.837487      
159             315.669000      4716.290639     295.921798      0.100138        15.937625      
160             315.662000      4747.912080     296.045098      0.100175        16.037800      
161             315.688000      4779.520341     296.166969      0.100125        16.137925      
162             315.641000      4811.126105     296.287056      0.100132        16.238057      
163             315.694000      4842.732757     296.405979      0.100118        16.338175      
164             315.706000      4874.339348     296.523522      0.100114        16.438289      
165             315.713000      4905.939693     296.639659      0.100092        16.538381      
166             315.695000      4937.536659     296.754284      0.100087        16.638468      
167             315.658000      4969.134656     296.867334      0.100102        16.738570      
168             315.698000      5000.741077     296.979294      0.100116        16.838686      
169             315.730000      5032.434686     297.090412      0.100382        16.939068      
170             315.715000      5064.058594     297.199897      0.100166        17.039234      
171             315.709000      5095.686953     297.308085      0.100182        17.139416      
172             315.789000      5127.307222     297.415426      0.100131        17.239547      
173             315.755000      5158.950293     297.521419      0.100214        17.339761      
174             315.761000      5190.565548     297.626134      0.100124        17.439885      
175             315.774000      5222.174525     297.729703      0.100100        17.539985      
176             315.733000      5253.818233     297.831989      0.100223        17.640208      
177             315.632000      5285.485592     297.932655      0.100330        17.740538      
178             315.626000      5317.105320     298.032009      0.100181        17.840719      
179             315.605000      5348.698959     298.130061      0.100105        17.940824      
180             315.665000      5380.348794     298.227512      0.100264        18.041088      
181             315.679000      5411.941949     298.323788      0.100080        18.141168      
182             315.705000      5443.535811     298.419143      0.100074        18.241242      
183             315.707000      5475.132083     298.513476      0.100081        18.341323      
184             315.751000      5506.739074     298.607042      0.100101        18.441424      
185             315.712000      5538.349422     298.699409      0.100124        18.541548      
186             315.759000      5569.958793     298.791019      0.100106        18.641654      
187             315.804000      5601.572984     298.881892      0.100107        18.741761      
188             315.835000      5633.189962     298.971963      0.100106        18.841867      
189             315.821000      5664.799855     299.060992      0.100088        18.941955      
190             315.836000      5696.412196     299.149167      0.100091        19.042046      
191             315.798000      5728.021049     299.236222      0.100092        19.142138      
192             315.828000      5759.629115     299.322517      0.100080        19.242218      
193             315.816000      5791.234717     299.407853      0.100076        19.342294      
194             315.816000      5822.841583     299.492314      0.100080        19.442374      
195             315.820000      5854.452322     299.575940      0.100091        19.542465      
196             315.788000      5886.058912     299.658548      0.100088        19.642553      
197             315.906000      5917.676679     299.740915      0.100086        19.742639      
198             315.854000      5949.288295     299.822186      0.100083        19.842722      
199             315.887000      5980.923115     299.902858      0.100146        19.942868      
200             315.895000      6012.551470     299.982746      0.100123        20.042991      
201             315.908000      6044.171649     300.061880      0.100093        20.143084      
202             315.894000      6075.787584     300.140155      0.100084        20.243168      
203             315.895000      6107.403936     300.217666      0.100085        20.343253      
204             315.909000      6139.021056     300.294485      0.100083        20.443336      
205             315.909000      6170.638492     300.370556      0.100084        20.543420      
206             315.902000      6202.252701     300.445850      0.100076        20.643496      
207             315.910000      6233.868974     300.520459      0.100080        20.743576      
