#timestep       power           acc-energy      avg-power       dt              acc-time       
1               137.790000      13.788921       137.790000      0.100072        0.100072       
2               137.782000      29.220918       137.785775      0.112003        0.212075       
3               137.834000      43.019204       137.801239      0.100108        0.312183       
4               137.731000      56.805113       137.784187      0.100093        0.412276       
5               137.769000      70.593586       137.781220      0.100084        0.512360       
6               137.669000      84.373289       137.762880      0.100093        0.612453       
7               137.738000      98.158935       137.759385      0.100086        0.712539       
8               137.691000      111.943318      137.750961      0.100111        0.812650       
9               137.543000      125.740944      137.728110      0.100315        0.912965       
10              137.572000      139.566242      137.712630      0.100495        1.013460       
11              133.930000      152.996207      137.372059      0.100276        1.113736       
12              133.871000      166.428422      137.082714      0.100337        1.214073       
13              140.287000      180.535402      137.327814      0.100558        1.314631       
14              160.849000      196.671291      138.995420      0.100317        1.414948       
15              178.247000      214.540553      141.592421      0.100250        1.515198       
16              194.112000      233.994069      144.850657      0.100218        1.615416       
17              212.578000      255.375589      148.820447      0.100582        1.715998       
18              227.882000      278.245599      153.188827      0.100359        1.816357       
19              246.953000      303.040421      158.100347      0.100403        1.916760       
20              264.965000      329.591504      163.409549      0.100206        2.016966       
21              281.837000      357.806770      169.009725      0.100112        2.117078       
22              301.957000      388.039610      175.013276      0.100123        2.217201       
23              305.832000      418.658287      180.665091      0.100116        2.317317       
24              305.930000      449.299318      185.854871      0.100157        2.417474       
25              305.699000      479.910182      190.621487      0.100134        2.517608       
26              305.803000      510.525955      195.026655      0.100116        2.617724       
27              305.704000      541.137013      199.104299      0.100133        2.717857       
28              305.702000      571.750317      202.892379      0.100141        2.817998       
29              305.756000      602.409389      206.426815      0.100273        2.918271       
30              305.724000      633.075340      209.726418      0.100306        3.018577       
31              305.716000      663.680875      212.807717      0.100111        3.118688       
32              305.758000      694.312323      215.700641      0.100182        3.218870       
33              305.724000      724.940365      218.417899      0.100182        3.319052       
34              305.724000      755.550063      220.974441      0.100122        3.419174       
35              305.744000      786.154732      223.385549      0.100099        3.519273       
36              305.749000      816.762652      225.663629      0.100108        3.619381       
37              305.598000      847.357291      227.815144      0.100114        3.719495       
38              305.598000      878.071418      229.861628      0.100505        3.820000       
39              305.625000      908.695654      231.798171      0.100202        3.920202       
40              305.615000      939.351589      233.639850      0.100309        4.020511       
41              305.629000      969.940773      235.388409      0.100086        4.120597       
42              305.596000      1000.533683     237.053631      0.100109        4.220706       
43              305.604000      1031.153981     238.643223      0.100196        4.320902       
44              305.666000      1061.750842     240.160733      0.100099        4.421001       
45              305.618000      1092.349928     241.610310      0.100122        4.521123       
46              305.673000      1122.953297     242.998211      0.100118        4.621241       
47              305.876000      1153.580967     244.331725      0.100131        4.721372       
48              305.895000      1184.202586     245.609921      0.100105        4.821477       
49              305.894000      1214.819516     246.835920      0.100090        4.921567       
50              305.969000      1245.462924     248.015256      0.100152        5.021719       
51              305.954000      1276.088307     249.147579      0.100098        5.121817       
52              306.029000      1306.719974     250.237887      0.100094        5.221911       
53              305.979000      1337.350002     251.286355      0.100105        5.322016       
54              306.070000      1367.984854     252.297650      0.100091        5.422107       
55              306.094000      1398.670165     253.274222      0.100248        5.522355       
56              306.088000      1429.344774     254.215559      0.100215        5.622570       
57              306.139000      1460.055720     255.125729      0.100317        5.722887       
58              306.159000      1490.733464     256.003895      0.100202        5.823089       
59              306.134000      1521.378090     256.851094      0.100102        5.923191       
60              306.195000      1552.029434     257.671164      0.100104        6.023295       
61              306.210000      1582.677075     258.464534      0.100087        6.123382       
62              306.217000      1613.323272     259.232445      0.100080        6.223462       
63              306.229000      1644.032835     259.977724      0.100283        6.323745       
64              306.268000      1674.718132     260.699691      0.100191        6.423936       
65              306.316000      1705.388328     261.399773      0.100126        6.524062       
66              306.334000      1736.062164     262.079004      0.100132        6.624194       
67              306.324000      1766.727953     262.737707      0.100109        6.724303       
68              306.400000      1797.404721     263.378270      0.100120        6.824423       
69              306.386000      1828.085602     264.000216      0.100138        6.924561       
70              306.412000      1858.817194     264.605736      0.100295        7.024856       
71              306.451000      1889.494471     265.193658      0.100105        7.124961       
72              306.437000      1920.162993     265.764959      0.100081        7.225042       
73              306.513000      1950.850155     266.321885      0.100117        7.325159       
74              306.513000      1981.548045     266.863980      0.100152        7.425311       
75              306.523000      2012.233756     267.391555      0.100109        7.525420       
76              306.523000      2042.932034     267.905486      0.100150        7.625570       
77              306.622000      2073.656478     268.407637      0.100203        7.725773       
78              306.543000      2104.337754     268.895366      0.100088        7.825861       
79              306.562000      2135.020012     269.371002      0.100085        7.925946       
80              306.569000      2165.706956     269.834922      0.100098        8.026044       
81              306.508000      2196.386261     270.286639      0.100093        8.126137       
82              306.544000      2227.069783     270.727811      0.100095        8.226232       
83              306.558000      2257.756852     271.158574      0.100102        8.326334       
84              306.524000      2288.453698     271.578876      0.100145        8.426479       
85              306.557000      2319.148943     271.989629      0.100129        8.526608       
86              306.569000      2349.865624     272.391247      0.100195        8.626803       
87              306.562000      2380.549415     272.783156      0.100090        8.726893       
88              306.667000      2411.241875     273.167345      0.100084        8.826977       
89              306.623000      2441.970712     273.542920      0.100217        8.927194       
90              306.705000      2472.728316     273.911309      0.100284        9.027478       
91              306.812000      2503.457993     274.272330      0.100158        9.127636       
92              306.798000      2534.177370     274.625261      0.100129        9.227765       
93              306.877000      2564.893609     274.971340      0.100093        9.327858       
94              306.943000      2595.617376     275.310781      0.100096        9.427954       
95              306.894000      2626.346672     275.642687      0.100130        9.528084       
96              306.969000      2657.077338     275.968405      0.100110        9.628194       
97              306.868000      2687.796666     276.286367      0.100106        9.728300       
98              306.893000      2718.528011     276.598203      0.100137        9.828437       
99              306.927000      2749.263067     276.904094      0.100138        9.928575       
100             306.959000      2780.000713     277.204190      0.100136        10.028711      
101             306.885000      2810.727574     277.497589      0.100125        10.128836      
102             306.958000      2841.454684     277.785894      0.100102        10.228938      
103             306.939000      2872.173446     278.068367      0.100081        10.329019      
104             307.014000      2902.899100     278.346133      0.100079        10.429098      
105             306.998000      2933.627450     278.618505      0.100093        10.529191      
106             307.070000      2964.366079     278.886451      0.100103        10.629294      
107             307.237000      2995.118966     279.150935      0.100095        10.729389      
108             307.251000      3025.879400     279.410710      0.100115        10.829504      
109             307.264000      3056.666946     279.666057      0.100199        10.929703      
110             307.343000      3087.446425     279.917354      0.100147        11.029850      
111             307.296000      3118.208906     280.163608      0.100107        11.129957      
112             307.381000      3148.985121     280.406270      0.100124        11.230081      
113             307.381000      3179.764103     280.644664      0.100133        11.330214      
114             307.384000      3210.543077     280.878906      0.100132        11.430346      
115             307.385000      3241.317849     281.109056      0.100118        11.530464      
116             307.406000      3272.087345     281.335371      0.100094        11.630558      
117             307.406000      3302.852845     281.557794      0.100081        11.730639      
118             307.364000      3333.615063     281.776106      0.100084        11.830723      
119             307.453000      3364.387112     281.991509      0.100087        11.930810      
120             307.433000      3395.158081     282.203167      0.100090        12.030900      
121             307.430000      3425.928442     282.411306      0.100089        12.130989      
122             307.529000      3456.709942     282.616856      0.100093        12.231082      
123             307.477000      3487.485623     282.818644      0.100091        12.331173      
124             307.582000      3518.267814     283.018001      0.100078        12.431251      
125             307.651000      3549.054450     283.214711      0.100070        12.531321      
126             307.626000      3579.839199     283.408109      0.100072        12.631393      
127             307.724000      3610.635909     283.599250      0.100079        12.731472      
128             307.720000      3641.434065     283.787390      0.100085        12.831557      
129             307.726000      3672.245746     283.972741      0.100127        12.931684      
130             307.778000      3703.053093     284.155587      0.100096        13.031780      
131             307.805000      3733.868991     284.335885      0.100115        13.131895      
132             307.833000      3764.689846     284.513680      0.100122        13.232017      
133             307.880000      3795.528031     284.689228      0.100163        13.332180      
134             307.826000      3826.347878     284.861684      0.100121        13.432301      
135             307.932000      3857.177106     285.032365      0.100117        13.532418      
136             307.939000      3888.004879     285.200579      0.100110        13.632528      
137             307.878000      3918.829316     285.365911      0.100119        13.732647      
138             308.028000      3949.668772     285.529935      0.100119        13.832766      
139             307.963000      3980.503567     285.691144      0.100125        13.932891      
140             308.001000      4011.341243     285.850319      0.100122        14.033013      
141             308.037000      4042.175747     286.007460      0.100100        14.133113      
142             308.025000      4073.003813     286.162280      0.100083        14.233196      
143             308.027000      4103.833927     286.314960      0.100089        14.333285      
144             308.097000      4134.674129     286.466024      0.100099        14.433384      
145             308.062000      4165.511135     286.614767      0.100100        14.533484      
146             308.168000      4196.365840     286.762234      0.100123        14.633607      
147             308.136000      4227.214875     286.907468      0.100115        14.733722      
148             308.138000      4258.058565     287.050729      0.100097        14.833819      
149             308.252000      4288.914590     287.192839      0.100100        14.933919      
150             308.219000      4319.774093     287.332866      0.100122        15.034041      
151             308.290000      4350.649028     287.471548      0.100149        15.134190      
152             308.356000      4381.525639     287.608819      0.100133        15.234323      
153             308.251000      4412.389887     287.743603      0.100127        15.334450      
154             308.403000      4443.266270     287.877611      0.100117        15.434567      
155             308.333000      4474.141812     288.009467      0.100137        15.534704      
156             308.334000      4505.008204     288.139601      0.100107        15.634811      
157             308.461000      4535.938514     288.269101      0.100273        15.735084      
158             308.431000      4566.827878     288.396615      0.100150        15.835234      
159             308.455000      4597.704224     288.522614      0.100100        15.935334      
160             308.516000      4628.588526     288.647429      0.100106        16.035440      
161             308.443000      4659.474158     288.770276      0.100134        16.135574      
162             308.443000      4690.349302     288.891567      0.100100        16.235674      
163             308.572000      4721.233039     289.012145      0.100086        16.335760      
164             308.605000      4752.130880     289.131497      0.100121        16.435881      
165             308.518000      4783.022479     289.248886      0.100129        16.536010      
166             308.695000      4813.937975     289.365951      0.100149        16.636159      
167             308.556000      4844.845104     289.480804      0.100167        16.736326      
168             308.554000      4875.765300     289.594326      0.100210        16.836536      
169             308.634000      4906.673452     289.706906      0.100145        16.936681      
170             308.546000      4937.558598     289.817595      0.100099        17.036780      
171             308.620000      4968.462879     289.927464      0.100137        17.136917      
172             308.714000      4999.371016     290.036583      0.100119        17.237036      
173             308.655000      5030.277567     290.144116      0.100133        17.337169      
174             308.803000      5061.190600     290.251235      0.100106        17.437275      
175             308.709000      5092.097619     290.356606      0.100117        17.537392      
176             308.157000      5122.953996     290.457663      0.100132        17.637524      
177             307.748000      5153.774035     290.555284      0.100147        17.737671      
178             307.189000      5184.540856     290.648679      0.100156        17.837827      
179             306.552000      5215.243878     290.737475      0.100156        17.937983      
180             306.204000      5245.908984     290.823343      0.100146        18.038129      
181             305.465000      5276.485114     290.904144      0.100097        18.138226      
182             305.175000      5307.033742     290.982471      0.100102        18.238328      
183             304.488000      5337.521517     291.056211      0.100128        18.338456      
184             304.000000      5367.962557     291.126505      0.100135        18.438591      
185             303.591000      5398.350801     291.193805      0.100096        18.538687      
186             303.467000      5428.722386     291.259706      0.100082        18.638769      
187             303.514000      5459.102012     291.325162      0.100093        18.738862      
188             303.646000      5489.497888     291.390630      0.100103        18.838965      
189             303.575000      5519.891513     291.455042      0.100119        18.939084      
190             303.735000      5550.310270     291.519636      0.100149        19.039233      
191             303.775000      5580.738804     291.583775      0.100168        19.139401      
192             303.699000      5611.159726     291.646852      0.100168        19.239569      
193             303.866000      5641.587044     291.710118      0.100134        19.339703      
194             303.921000      5672.012271     291.773000      0.100109        19.439812      
195             303.921000      5702.449655     291.835263      0.100149        19.539961      
196             304.030000      5732.889747     291.897430      0.100122        19.640083      
197             303.852000      5763.313840     291.958067      0.100128        19.740211      
198             303.852000      5793.743098     292.018102      0.100145        19.840356      
199             303.959000      5824.173042     292.078052      0.100112        19.940468      
200             303.959000      5854.604809     292.137406      0.100118        20.040586      
201             303.874000      5885.034448     292.195760      0.100139        20.140725      
202             304.024000      5915.471810     292.254265      0.100115        20.240840      
203             304.045000      5945.912796     292.312300      0.100120        20.340960      
204             303.986000      5976.356386     292.369493      0.100148        20.441108      
205             304.084000      6006.806445     292.426600      0.100137        20.541245      
206             304.036000      6037.249266     292.482916      0.100129        20.641374      
207             304.043000      6067.692483     292.538722      0.100128        20.741502      
