#timestep       power           acc-energy      avg-power       dt              acc-time       
1               136.577000      13.682557       136.577000      0.100182        0.100182       
2               136.567000      28.708751       136.571766      0.110028        0.210210       
3               136.581000      42.379690       136.574744      0.100094        0.310304       
4               136.501000      56.046170       136.556755      0.100120        0.410424       
5               136.472000      69.715478       136.540129      0.100162        0.510586       
6               136.501000      83.382095       136.533714      0.100121        0.610707       
7               136.423000      97.042403       136.518118      0.100132        0.710839       
8               136.443000      110.704304      136.508843      0.100129        0.810968       
9               136.385000      124.356306      136.495237      0.100099        0.911067       
10              136.427000      138.012376      136.488482      0.100098        1.011165       
11              133.715000      151.401259      136.238585      0.100130        1.111295       
12              133.567000      164.776524      136.017748      0.100139        1.211434       
13              139.552000      178.750424      136.287577      0.100134        1.311568       
14              156.619000      194.432841      137.729673      0.100131        1.411699       
15              173.794000      211.835008      140.118273      0.100131        1.511830       
16              192.379000      231.097725      143.364518      0.100129        1.611959       
17              205.303000      251.660463      146.987889      0.100158        1.712117       
18              226.718000      274.368765      151.394413      0.100161        1.812278       
19              243.346000      298.743760      156.210462      0.100166        1.912444       
20              259.830000      324.763916      161.366399      0.100143        2.012587       
21              276.292000      352.425995      166.812607      0.100119        2.112706       
22              292.770000      381.731979      172.510447      0.100099        2.212805       
23              299.914000      411.805855      178.033555      0.100275        2.313080       
24              299.287000      441.769572      183.064032      0.100117        2.413197       
25              298.662000      471.665937      187.668130      0.100101        2.513298       
26              298.740000      501.575188      191.923210      0.100118        2.613416       
27              298.791000      531.492235      195.866524      0.100127        2.713543       
28              298.630000      561.390174      199.523103      0.100117        2.813660       
29              298.488000      591.270614      202.923163      0.100106        2.913766       
30              298.527000      621.161824      206.099358      0.100129        3.013895       
31              298.527000      651.085872      209.074456      0.100239        3.114134       
32              298.621000      681.002321      211.865392      0.100182        3.214316       
33              298.621000      710.896075      214.485686      0.100106        3.314422       
34              298.661000      740.798313      216.953868      0.100121        3.414543       
35              298.661000      770.697265      219.281182      0.100110        3.514653       
36              298.698000      800.636961      221.483261      0.100234        3.614887       
37              298.710000      830.593989      223.567931      0.100288        3.715175       
38              298.703000      860.506406      225.540009      0.100141        3.815316       
39              298.703000      890.412551      227.410830      0.100120        3.915436       
40              298.752000      920.317626      229.189235      0.100100        4.015536       
41              298.794000      950.230491      230.882352      0.100112        4.115648       
42              298.792000      980.149430      232.495338      0.100133        4.215781       
43              298.829000      1010.096280     234.035554      0.100214        4.315995       
44              298.855000      1040.048723     235.506600      0.100224        4.416219       
45              298.913000      1069.970213     236.911958      0.100101        4.516320       
46              298.907000      1099.897380     238.256514      0.100122        4.616442       
47              298.929000      1129.824657     239.544366      0.100115        4.716557       
48              298.950000      1159.756129     240.779203      0.100122        4.816679       
49              298.985000      1189.691404     241.964473      0.100123        4.916802       
50              298.968000      1219.625276     243.102106      0.100124        5.016926       
51              298.976000      1249.559949     244.195376      0.100124        5.117050       
52              298.968000      1279.494120     245.246540      0.100125        5.217175       
53              298.999000      1309.426312     246.258533      0.100108        5.317283       
54              299.007000      1339.360800     247.233320      0.100113        5.417396       
55              299.001000      1369.299471     248.172771      0.100129        5.517525       
56              299.027000      1399.238652     249.079134      0.100122        5.617647       
57              299.044000      1429.179236     249.954044      0.100121        5.717768       
58              299.040000      1459.121813     250.798839      0.100129        5.817897       
59              299.045000      1489.063693     251.615099      0.100125        5.918022       
60              299.049000      1519.005675     252.404258      0.100124        6.018146       
61              299.084000      1548.948470     253.168093      0.100115        6.118261       
62              299.098000      1578.893863     253.907587      0.100119        6.218380       
63              299.105000      1608.841751     254.623800      0.100125        6.318505       
64              299.118000      1638.786753     255.317775      0.100111        6.418616       
65              299.118000      1668.735943     255.990527      0.100125        6.518741       
66              299.134000      1698.686136     256.643154      0.100123        6.618864       
67              299.154000      1728.638631     257.276636      0.100124        6.718988       
68              299.154000      1758.587835     257.891449      0.100113        6.819101       
69              299.211000      1788.543943     258.489318      0.100117        6.919218       
70              299.211000      1818.501846     259.070167      0.100123        7.019341       
71              299.231000      1848.461452     259.634955      0.100122        7.119463       
72              299.231000      1878.413578     260.183942      0.100097        7.219560       
73              299.239000      1908.372788     260.718134      0.100118        7.319678       
74              299.256000      1938.336094     261.238180      0.100126        7.419804       
75              299.265000      1968.300002     261.744493      0.100125        7.519929       
76              299.275000      1998.258328     262.237524      0.100103        7.620032       
77              299.291000      2028.222145     262.718039      0.100116        7.720148       
78              299.297000      2058.188659     263.186360      0.100123        7.820271       
79              299.310000      2088.156773     263.643009      0.100124        7.920395       
80              299.330000      2118.126890     264.088507      0.100124        8.020519       
81              299.295000      2148.093503     264.522588      0.100124        8.120643       
82              299.319000      2178.053240     264.946258      0.100093        8.220736       
83              299.328000      2208.022258     265.359957      0.100121        8.320857       
84              299.334000      2237.990082     265.763867      0.100115        8.420972       
85              299.338000      2267.964592     266.158414      0.100136        8.521108       
86              299.338000      2297.964545     266.544119      0.100221        8.621329       
87              299.354000      2327.939759     266.920817      0.100133        8.721462       
88              299.361000      2357.914477     267.289027      0.100129        8.821591       
89              299.361000      2387.889494     267.648976      0.100130        8.921721       
90              299.361000      2417.864211     268.000932      0.100129        9.021850       
91              299.415000      2447.844037     268.345751      0.100128        9.121978       
92              299.397000      2477.821461     268.682880      0.100126        9.222104       
93              299.402000      2507.800583     269.012833      0.100130        9.322234       
94              299.415000      2537.780408     269.335906      0.100128        9.422362       
95              299.435000      2567.761936     269.652392      0.100127        9.522489       
96              299.435000      2597.744662     269.962304      0.100131        9.622620       
97              299.441000      2627.728288     270.265897      0.100132        9.722752       
98              299.447000      2657.715510     270.563391      0.100142        9.822894       
99              299.447000      2687.698839     270.854843      0.100129        9.923023       
100             299.461000      2717.683569     271.140612      0.100129        10.023152      
101             299.461000      2747.667701     271.420723      0.100127        10.123279      
102             299.455000      2777.650333     271.695279      0.100124        10.223403      
103             299.512000      2807.638672     271.965063      0.100124        10.323527      
104             299.512000      2837.630307     272.229693      0.100135        10.423662      
105             299.525000      2867.618750     272.489372      0.100120        10.523782      
106             299.466000      2897.603082     272.743616      0.100126        10.623908      
107             299.460000      2927.588611     272.993071      0.100132        10.724040      
108             299.460000      2957.572343     273.237896      0.100126        10.824166      
109             299.460000      2987.557273     273.478243      0.100130        10.924296      
110             299.460000      3017.589817     273.714595      0.100289        11.024585      
111             299.467000      3047.574250     273.946375      0.100126        11.124711      
112             299.479000      3077.556590     274.174102      0.100115        11.224826      
113             299.486000      3107.544422     274.397900      0.100131        11.324957      
114             299.467000      3137.531850     274.617620      0.100136        11.425093      
115             299.467000      3167.516582     274.833503      0.100127        11.525220      
116             299.474000      3197.533460     275.045947      0.100232        11.625452      
117             299.508000      3227.515409     275.254786      0.100104        11.725556      
118             299.471000      3257.500242     275.459821      0.100126        11.825682      
119             299.485000      3287.484980     275.661520      0.100121        11.925803      
120             299.506000      3317.469125     275.860018      0.100112        12.025915      
121             299.514000      3347.458563     276.055333      0.100127        12.126042      
122             299.496000      3377.447097     276.247308      0.100130        12.226172      
123             299.510000      3407.439130     276.436290      0.100137        12.326309      
124             299.499000      3437.429163     276.622133      0.100134        12.426443      
125             299.505000      3467.435671     276.805148      0.100187        12.526630      
126             299.529000      3497.431703     276.985373      0.100144        12.626774      
127             299.555000      3527.426744     277.162945      0.100132        12.726906      
128             299.559000      3557.421287     277.337770      0.100129        12.827035      
129             299.591000      3587.461876     277.510380      0.100272        12.927307      
130             299.589000      3617.460322     277.680081      0.100132        13.027439      
131             299.581000      3647.457667     277.847131      0.100131        13.127570      
132             299.490000      3677.446798     278.010968      0.100134        13.227704      
133             299.502000      3707.436832     278.172432      0.100133        13.327837      
134             299.526000      3737.429269     278.331667      0.100133        13.427970      
135             299.520000      3767.422004     278.488504      0.100136        13.528106      
136             299.546000      3797.416743     278.643225      0.100134        13.628240      
137             299.566000      3827.412586     278.795830      0.100131        13.728371      
138             299.566000      3857.410826     278.946237      0.100139        13.828510      
139             299.559000      3887.411061     279.094444      0.100148        13.928658      
140             299.560000      3917.410796     279.240539      0.100146        14.028804      
141             299.677000      3947.418054     279.385373      0.100132        14.128936      
142             299.677000      3977.441793     279.528246      0.100187        14.229123      
143             299.675000      4007.447352     279.669023      0.100127        14.329250      
144             299.675000      4037.455907     279.807861      0.100137        14.429387      
145             299.675000      4067.468059     279.944801      0.100149        14.529536      
146             299.678000      4097.475417     280.079864      0.100132        14.629668      
147             299.678000      4127.482774     280.213090      0.100132        14.729800      
148             299.675000      4157.490131     280.344499      0.100133        14.829933      
149             299.631000      4187.492782     280.473848      0.100132        14.930065      
150             299.647000      4217.515014     280.601657      0.100192        15.030257      
151             299.654000      4247.520268     280.727745      0.100133        15.130390      
152             299.667000      4277.526824     280.852261      0.100133        15.230523      
153             299.667000      4307.533080     280.975149      0.100132        15.330655      
154             299.689000      4337.544536     281.096598      0.100142        15.430797      
155             299.700000      4367.554396     281.216540      0.100133        15.530930      
156             299.714000      4397.571353     281.335057      0.100152        15.631082      
157             299.719000      4427.574723     281.452043      0.100105        15.731187      
158             299.721000      4457.575896     281.567553      0.100097        15.831284      
159             299.792000      4487.593170     281.682091      0.100127        15.931411      
160             299.748000      4517.608436     281.794933      0.100135        16.031546      
161             299.748000      4547.618306     281.906354      0.100117        16.131663      
162             299.732000      4577.635567     282.016335      0.100147        16.231810      
163             299.751000      4607.646037     282.125052      0.100118        16.331928      
164             299.726000      4637.662697     282.232323      0.100147        16.432075      
165             299.701000      4667.673856     282.338132      0.100137        16.532212      
166             299.670000      4697.706783     282.442567      0.100220        16.632432      
167             299.673000      4727.718735     282.545695      0.100149        16.732581      
168             299.683000      4757.729590     282.647649      0.100142        16.832723      
169             299.683000      4787.732353     282.748371      0.100115        16.932838      
170             299.702000      4817.736719     282.848018      0.100114        17.032952      
171             299.720000      4847.785747     282.946747      0.100257        17.133209      
172             299.736000      4877.795615     283.044288      0.100121        17.233330      
173             299.722000      4907.804381     283.140622      0.100122        17.333452      
174             299.712000      4937.817841     283.235810      0.100141        17.433593      
175             299.750000      4967.838703     283.330140      0.100153        17.533746      
176             299.801000      4997.858077     283.423667      0.100131        17.633877      
177             299.788000      5027.875249     283.516061      0.100128        17.734005      
178             299.782000      5057.891522     283.607384      0.100127        17.834132      
179             299.782000      5087.917087     283.697715      0.100158        17.934290      
180             299.822000      5117.939164     283.787242      0.100133        18.034423      
181             299.815000      5147.965936     283.875758      0.100151        18.134574      
182             299.822000      5177.986513     283.963320      0.100128        18.234702      
183             299.848000      5208.012992     284.050077      0.100139        18.334841      
184             299.881000      5238.037977     284.136057      0.100123        18.434964      
185             299.873000      5268.068759     284.221083      0.100145        18.535109      
186             299.854000      5298.090141     284.305073      0.100120        18.635229      
187             299.868000      5328.113825     284.388242      0.100123        18.735352      
188             299.874000      5358.141108     284.470568      0.100133        18.835485      
189             299.875000      5388.176288     284.552048      0.100159        18.935644      
190             299.875000      5418.200973     284.632644      0.100124        19.035768      
191             299.784000      5448.215047     284.711916      0.100119        19.135887      
192             299.797000      5478.228924     284.790426      0.100114        19.236001      
193             299.797000      5508.242201     284.868122      0.100112        19.336113      
194             299.785000      5538.257275     284.944964      0.100122        19.436235      
195             299.785000      5568.272649     285.021018      0.100123        19.536358      
196             299.785000      5598.291020     285.096305      0.100133        19.636491      
197             299.797000      5628.312692     285.170893      0.100140        19.736631      
198             299.791000      5658.334362     285.244700      0.100142        19.836773      
199             299.797000      5688.359631     285.317803      0.100152        19.936925      
200             299.797000      5718.377705     285.390157      0.100128        20.037053      
201             299.861000      5748.405486     285.462118      0.100139        20.137192      
202             299.886000      5778.433971     285.533487      0.100133        20.237325      
203             299.867000      5808.459053     285.604055      0.100128        20.337453      
204             299.881000      5838.485238     285.674000      0.100127        20.437580      
205             299.905000      5868.513227     285.743379      0.100125        20.537705      
206             299.914000      5898.551413     285.812149      0.100156        20.637861      
207             299.907000      5928.584700     285.880212      0.100142        20.738003      
