#timestep       power           acc-energy      avg-power       dt              acc-time       
1               134.555000      13.469763       134.555000      0.100106        0.100106       
2               134.529000      28.415128       134.541324      0.111094        0.211200       
3               134.469000      41.879912       134.518062      0.100133        0.311333       
4               134.417000      55.338145       134.493470      0.100123        0.411456       
5               134.390000      68.805636       134.473205      0.100212        0.511668       
6               134.379000      82.255899       134.457792      0.100092        0.611760       
7               134.334000      95.702867       134.440384      0.100101        0.711861       
8               134.281000      109.151780      134.420726      0.100155        0.812016       
9               134.218000      122.584720      134.398481      0.100083        0.912099       
10              134.174000      136.019831      134.376275      0.100132        1.012231       
11              132.865000      149.322674      134.240245      0.100123        1.112354       
12              132.832000      162.621681      134.123960      0.100119        1.212473       
13              142.619000      176.900552      134.771926      0.100119        1.312592       
14              160.555000      192.969057      136.598531      0.100081        1.412673       
15              178.331000      210.816424      139.359448      0.100080        1.512753       
16              199.569000      230.800066      143.097480      0.100134        1.612887       
17              213.644000      252.197794      147.222104      0.100156        1.713043       
18              234.826000      275.708808      152.059498      0.100121        1.813164       
19              248.982000      300.636388      157.131248      0.100118        1.913282       
20              267.523000      327.437912      162.624009      0.100184        2.013466       
21              287.861000      356.260859      168.556903      0.100128        2.113594       
22              302.116000      386.509619      174.597575      0.100123        2.213717       
23              309.722000      417.527038      180.445877      0.100146        2.313863       
24              309.532000      448.506858      185.797984      0.100086        2.413949       
25              309.547000      479.488179      190.724544      0.100086        2.514035       
26              309.524000      510.469984      195.273373      0.100095        2.614130       
27              309.544000      541.452862      199.487316      0.100092        2.714222       
28              309.544000      572.442550      203.402348      0.100114        2.814336       
29              309.644000      603.441630      207.051774      0.100112        2.914448       
30              309.644000      634.439472      210.458678      0.100108        3.014556       
31              309.778000      665.458472      213.651659      0.100133        3.114689       
32              309.778000      696.482739      216.646227      0.100150        3.214839       
33              309.848000      727.537255      219.464015      0.100225        3.315064       
34              309.896000      758.564042      222.115131      0.100120        3.415184       
35              310.000000      789.593492      224.617589      0.100095        3.515279       
36              310.161000      820.640918      226.986076      0.100101        3.615380       
37              310.227000      851.698364      229.228959      0.100112        3.715492       
38              309.117000      882.660141      231.326043      0.100162        3.815654       
39              309.183000      913.639350      233.318211      0.100197        3.915851       
40              309.386000      944.639518      235.216075      0.100199        4.016050       
41              309.512000      975.660977      237.025102      0.100227        4.116277       
42              309.559000      1006.669811     238.748305      0.100171        4.216448       
43              309.817000      1037.712855     240.397951      0.100198        4.316646       
44              309.876000      1068.726485     241.972338      0.100084        4.416730       
45              310.047000      1099.756299     243.480699      0.100081        4.516811       
46              310.168000      1130.798222     244.926289      0.100081        4.616892       
47              310.281000      1161.851455     246.312933      0.100081        4.716973       
48              311.729000      1193.050228     247.672070      0.100083        4.817056       
49              311.856000      1224.260465     248.978412      0.100079        4.917135       
50              312.008000      1255.495586     250.236053      0.100110        5.017245       
51              312.292000      1286.762573     251.450174      0.100121        5.117366       
52              312.445000      1318.042380     252.620543      0.100113        5.217479       
53              312.558000      1349.332561     253.748938      0.100110        5.317589       
54              311.436000      1380.506059     254.814752      0.100096        5.417685       
55              311.667000      1411.710782     255.846350      0.100122        5.517807       
56              311.901000      1442.932384     256.845143      0.100101        5.617908       
57              312.005000      1474.166893     257.810862      0.100109        5.718017       
58              312.072000      1505.407484     258.744483      0.100107        5.818124       
59              312.296000      1536.663630     259.650112      0.100085        5.918209       
60              312.503000      1567.940492     260.529062      0.100085        6.018294       
61              312.655000      1599.243198     261.382028      0.100119        6.118413       
62              312.734000      1630.548184     262.208654      0.100101        6.218514       
63              313.002000      1661.883128     263.013413      0.100111        6.318625       
64              314.546000      1693.371384     263.817119      0.100107        6.418732       
65              314.753000      1724.877530     264.599250      0.100098        6.518830       
66              314.905000      1756.399835     265.360046      0.100101        6.618931       
67              315.043000      1787.957693     266.100732      0.100170        6.719101       
68              314.599000      1819.473906     266.813198      0.100179        6.819280       
69              314.815000      1850.996961     267.507840      0.100132        6.919412       
70              314.815000      1882.513091     268.182519      0.100110        7.019522       
71              314.977000      1914.080716     268.841227      0.100222        7.119744       
72              315.355000      1945.722175     269.487620      0.100336        7.220080       
73              315.355000      1977.296464     270.114977      0.100123        7.320203       
74              315.767000      2008.902214     270.730775      0.100092        7.420295       
75              315.767000      2040.528174     271.330559      0.100156        7.520451       
76              316.069000      2072.161940     271.918135      0.100085        7.620536       
77              316.220000      2103.810819     272.492435      0.100085        7.720621       
78              315.850000      2135.422982     273.047307      0.100086        7.820707       
79              316.598000      2167.109693     273.597601      0.100085        7.920792       
80              316.784000      2198.815019     274.136484      0.100085        8.020877       
81              317.109000      2230.555093     274.666126      0.100092        8.120969       
82              317.153000      2262.297668     275.183376      0.100086        8.221055       
83              317.344000      2294.058725     275.690470      0.100084        8.321139       
84              317.472000      2325.834815     276.187067      0.100091        8.421230       
85              317.678000      2357.628347     276.674369      0.100081        8.521311       
86              317.857000      2389.483340     277.153083      0.100218        8.621529       
87              318.128000      2421.363265     277.623876      0.100211        8.721740       
88              318.747000      2453.279721     278.090636      0.100131        8.821871       
89              319.034000      2485.225552     278.550150      0.100133        8.922004       
90              319.351000      2517.208236     279.003053      0.100149        9.022153       
91              319.452000      2549.186020     279.446915      0.100102        9.122255       
92              319.352000      2581.150281     279.880009      0.100091        9.222346       
93              319.586000      2613.147231     280.306437      0.100120        9.322466       
94              319.783000      2645.157829     280.725818      0.100101        9.422567       
95              319.957000      2677.189684     281.138260      0.100113        9.522680       
96              319.970000      2709.226041     281.542295      0.100123        9.622803       
97              320.348000      2741.295438     281.941842      0.100108        9.722911       
98              320.454000      2773.370320     282.334264      0.100092        9.823003       
99              320.419000      2805.447466     282.718484      0.100110        9.923113       
100             320.816000      2837.568847     283.099047      0.100124        10.023237      
101             320.931000      2869.699817     283.473198      0.100118        10.123355      
102             320.820000      2901.819995     283.838937      0.100119        10.223474      
103             320.963000      2933.949354     284.198912      0.100103        10.323577      
104             321.179000      2966.101620     284.554062      0.100107        10.423684      
105             321.326000      2998.274386     284.903915      0.100125        10.523809      
106             321.215000      3030.435716     285.246125      0.100124        10.623933      
107             321.329000      3062.608461     285.583008      0.100124        10.724057      
108             321.570000      3094.796332     285.915797      0.100096        10.824153      
109             321.792000      3127.004171     286.244498      0.100089        10.924242      
110             321.694000      3159.214105     286.566459      0.100126        11.024368      
111             321.707000      3191.426627     286.882754      0.100130        11.124498      
112             321.959000      3223.690460     287.195905      0.100211        11.224709      
113             321.924000      3255.925032     287.502961      0.100131        11.324840      
114             322.253000      3288.188680     287.807482      0.100119        11.424959      
115             322.253000      3320.470375     288.106878      0.100175        11.525134      
116             322.329000      3352.737441     288.401568      0.100106        11.625240      
117             322.610000      3385.037477     288.693668      0.100121        11.725361      
118             322.489000      3417.320561     288.979755      0.100106        11.825467      
119             322.489000      3449.605580     289.261056      0.100112        11.925579      
120             322.766000      3481.913488     289.539938      0.100097        12.025676      
121             322.766000      3514.219460     289.814200      0.100091        12.125767      
122             322.660000      3546.541603     290.083324      0.100174        12.225941      
123             322.771000      3578.863891     290.348886      0.100140        12.326081      
124             323.145000      3611.219753     290.613151      0.100128        12.426209      
125             323.250000      3643.581280     290.873992      0.100113        12.526322      
126             323.195000      3675.927929     291.130186      0.100084        12.626406      
127             323.142000      3708.270565     291.381944      0.100088        12.726494      
128             323.292000      3740.635651     291.631001      0.100111        12.826605      
129             323.546000      3773.072431     291.878517      0.100254        12.926859      
130             323.418000      3805.461774     292.120981      0.100147        13.027006      
131             323.453000      3837.836832     292.359883      0.100092        13.127098      
132             323.053000      3870.168299     292.592116      0.100081        13.227179      
133             322.541000      3902.462071     292.817111      0.100123        13.327302      
134             322.627000      3934.765100     293.039396      0.100125        13.427427      
135             322.514000      3967.044236     293.257470      0.100086        13.527513      
136             322.201000      3999.304611     293.470124      0.100125        13.627638      
137             321.893000      4031.536723     293.677446      0.100133        13.727771      
138             321.616000      4063.740133     293.879753      0.100130        13.827901      
139             321.270000      4095.908898     294.076664      0.100130        13.928031      
140             321.231000      4128.066370     294.270442      0.100107        14.028138      
141             321.171000      4160.221047     294.461067      0.100117        14.128255      
142             321.126000      4192.390486     294.648805      0.100177        14.228432      
143             321.296000      4224.552537     294.834966      0.100101        14.328533      
144             321.454000      4256.731368     295.019645      0.100104        14.428637      
145             321.351000      4288.901174     295.201077      0.100108        14.528745      
146             321.412000      4321.084158     295.380483      0.100130        14.628875      
147             321.524000      4353.271282     295.558171      0.100108        14.728983      
148             321.245000      4385.434332     295.731598      0.100120        14.829103      
149             321.454000      4417.634379     295.904186      0.100170        14.929273      
150             321.390000      4449.813553     296.073971      0.100125        15.029398      
151             321.639000      4482.021196     296.243175      0.100136        15.129534      
152             321.515000      4514.214814     296.409331      0.100131        15.229665      
153             321.452000      4546.394088     296.572864      0.100106        15.329771      
154             321.564000      4578.584895     296.735003      0.100107        15.429878      
155             321.769000      4610.792685     296.896356      0.100096        15.529974      
156             321.769000      4643.000797     297.055643      0.100097        15.630071      
157             321.531000      4675.193445     297.211429      0.100123        15.730194      
158             321.531000      4707.385450     297.365242      0.100121        15.830315      
159             321.941000      4739.633636     297.519770      0.100168        15.930483      
160             321.941000      4771.874096     297.672330      0.100144        16.030627      
161             321.655000      4804.078516     297.821187      0.100121        16.130748      
162             321.655000      4836.296767     297.968270      0.100164        16.230912      
163             321.752000      4868.516691     298.114107      0.100139        16.331051      
164             321.626000      4900.719816     298.257381      0.100126        16.431177      
165             321.920000      4932.960748     298.400736      0.100152        16.531329      
166             322.002000      4965.201520     298.542823      0.100126        16.631455      
167             321.936000      4997.438581     298.682826      0.100135        16.731590      
168             321.739000      5029.654629     298.819986      0.100131        16.831721      
169             321.657000      5061.866648     298.955056      0.100144        16.931865      
170             321.789000      5094.080301     299.089266      0.100108        17.031973      
171             322.059000      5126.340307     299.223565      0.100168        17.132141      
172             321.972000      5158.586447     299.355776      0.100152        17.232293      
173             321.824000      5190.816477     299.485599      0.100148        17.332441      
174             321.839000      5223.041572     299.613991      0.100128        17.432569      
175             321.922000      5255.273046     299.741383      0.100122        17.532691      
176             321.834000      5287.496032     299.866830      0.100123        17.632814      
177             321.915000      5319.738717     299.991362      0.100159        17.732973      
178             322.047000      5351.977553     300.115171      0.100106        17.833079      
179             321.802000      5384.199588     300.236259      0.100130        17.933209      
180             321.837000      5416.426092     300.356201      0.100133        18.033342      
181             321.780000      5448.646889     300.474503      0.100133        18.133475      
182             322.144000      5480.903490     300.593502      0.100131        18.233606      
183             322.001000      5513.145772     300.710421      0.100131        18.333737      
184             321.680000      5545.356234     300.824327      0.100132        18.433869      
185             321.855000      5577.579069     300.937929      0.100116        18.533985      
186             321.977000      5609.822811     301.050997      0.100143        18.634128      
187             322.040000      5642.067389     301.163174      0.100126        18.734254      
188             322.129000      5674.323454     301.274639      0.100134        18.834388      
189             322.118000      5706.577451     301.384865      0.100131        18.934519      
190             322.118000      5738.831127     301.493930      0.100130        19.034649      
191             322.036000      5771.079168     301.601432      0.100138        19.134787      
192             322.036000      5803.324310     301.707806      0.100129        19.234916      
193             322.172000      5835.582748     301.813782      0.100128        19.335044      
194             321.990000      5867.823285     301.917728      0.100129        19.435173      
195             321.990000      5900.068329     302.020624      0.100143        19.535316      
196             321.885000      5932.308653     302.121953      0.100161        19.635477      
197             322.198000      5964.568728     302.223805      0.100125        19.735602      
198             322.257000      5996.833099     302.324922      0.100120        19.835722      
199             322.189000      6029.177008     302.424947      0.100388        19.936110      
200             321.990000      6061.446524     302.522809      0.100219        20.036329      
201             322.146000      6093.700426     302.620379      0.100122        20.136451      
202             322.094000      6125.950409     302.716730      0.100126        20.236577      
203             322.203000      6158.210018     302.812665      0.100122        20.336699      
204             322.092000      6190.458835     302.907117      0.100123        20.436822      
205             322.337000      6222.741531     303.001870      0.100152        20.536974      
206             322.149000      6254.997344     303.094768      0.100127        20.637101      
207             322.054000      6287.242356     303.186307      0.100123        20.737224      
