#timestep       power           acc-energy      avg-power       dt              acc-time       
1               134.785000      13.544949       134.785000      0.100493        0.100493       
2               134.800000      29.651797       134.793148      0.119487        0.219980       
3               134.787000      43.147749       134.791225      0.100128        0.320108       
4               134.742000      56.638523       134.779497      0.100123        0.420231       
5               134.680000      70.123492       134.760352      0.100126        0.520357       
6               134.665000      83.606691       134.744965      0.100124        0.620481       
7               134.594000      97.080089       134.723993      0.100104        0.720585       
8               134.571000      110.553875      134.705328      0.100124        0.820709       
9               134.564000      124.028441      134.689960      0.100135        0.920844       
10              134.519000      137.495273      134.673196      0.100111        1.020955       
11              132.833000      150.795841      134.508839      0.100130        1.121085       
12              132.830000      164.095844      134.371190      0.100128        1.221213       
13              145.265000      178.712117      135.200428      0.100618        1.321831       
14              157.541000      194.501349      136.774939      0.100223        1.422054       
15              176.086000      212.130023      139.360454      0.100114        1.522168       
16              188.389000      230.992095      142.386350      0.100123        1.622291       
17              206.739000      251.692871      146.127382      0.100130        1.722421       
18              218.971000      273.619094      150.129485      0.100133        1.822554       
19              237.349000      297.388409      154.672369      0.100145        1.922699       
20              252.644000      322.684137      159.521687      0.100124        2.022823       
21              265.370000      349.253247      164.513641      0.100121        2.122944       
22              283.386000      377.620469      169.866318      0.100101        2.223045       
23              286.543000      406.303137      174.893651      0.100099        2.323144       
24              286.066000      434.943779      179.486824      0.100119        2.423263       
25              285.991000      463.579772      183.712943      0.100129        2.523392       
26              286.049000      492.220142      187.618502      0.100124        2.623516       
27              286.029000      520.860511      191.236424      0.100131        2.723647       
28              286.032000      549.496033      194.597286      0.100113        2.823760       
29              286.072000      578.137276      197.729549      0.100119        2.923879       
30              286.072000      606.787100      200.655252      0.100149        3.024028       
31              286.133000      635.450474      203.396026      0.100175        3.124203       
32              286.146000      664.101414      205.965709      0.100127        3.224330       
33              286.146000      692.754072      208.380743      0.100133        3.324463       
34              286.191000      721.408945      210.655689      0.100125        3.424588       
35              286.185000      750.080676      212.802488      0.100186        3.524774       
36              286.204000      778.740858      214.830220      0.100139        3.624913       
37              286.226000      807.402957      216.749504      0.100138        3.725051       
38              286.289000      836.071652      218.569967      0.100139        3.825190       
39              286.255000      864.734937      220.296561      0.100132        3.925322       
40              286.224000      893.419162      221.937828      0.100216        4.025538       
41              286.201000      922.072747      223.497299      0.100117        4.125655       
42              286.255000      950.736892      224.984415      0.100135        4.225790       
43              286.269000      979.421904      226.403950      0.100203        4.325993       
44              286.228000      1008.083345     227.757386      0.100135        4.426128       
45              286.268000      1036.749936     229.051873      0.100139        4.526267       
46              286.301000      1065.417828     230.290952      0.100132        4.626399       
47              286.329000      1094.109425     231.478970      0.100205        4.726604       
48              286.388000      1122.784024     232.617995      0.100125        4.826729       
49              286.398000      1151.454182     233.710725      0.100106        4.926835       
50              286.447000      1180.133256     234.761054      0.100120        5.026955       
51              286.490000      1208.812910     235.771073      0.100107        5.127062       
52              286.507000      1237.491974     236.742655      0.100099        5.227161       
53              286.572000      1266.185856     237.679213      0.100128        5.327289       
54              286.541000      1294.877206     238.580660      0.100130        5.427419       
55              286.547000      1323.570876     239.449608      0.100136        5.527555       
56              286.540000      1352.263846     240.287508      0.100136        5.627691       
57              286.545000      1380.954164     241.096111      0.100125        5.727816       
58              286.583000      1409.648287     241.877584      0.100125        5.827941       
59              286.577000      1438.339803     242.632505      0.100118        5.928059       
60              286.558000      1467.027124     243.361977      0.100110        6.028169       
61              286.577000      1495.716061     244.067919      0.100109        6.128278       
62              286.578000      1524.402805     244.751131      0.100101        6.228379       
63              286.653000      1553.095337     245.413877      0.100095        6.328474       
64              286.656000      1581.782723     246.055910      0.100076        6.428550       
65              286.682000      1610.473858     246.678684      0.100080        6.528630       
66              286.693000      1639.176414     247.283033      0.100116        6.628746       
67              286.719000      1667.883581     247.869825      0.100123        6.728869       
68              286.573000      1696.580714     248.437359      0.100139        6.829008       
69              286.573000      1725.273836     248.988414      0.100125        6.929133       
70              286.242000      1753.937537     249.519123      0.100138        7.029271       
71              286.239000      1782.600080     250.034867      0.100135        7.129406       
72              286.252000      1811.291690     250.536983      0.100232        7.229638       
73              286.305000      1839.959123     251.025595      0.100129        7.329767       
74              286.326000      1868.627801     251.501307      0.100126        7.429893       
75              286.318000      1897.298826     251.964312      0.100137        7.530030       
76              286.318000      1925.968706     252.415146      0.100133        7.630163       
77              286.360000      1954.644797     252.854875      0.100140        7.730303       
78              286.320000      1983.322894     253.282934      0.100161        7.830464       
79              286.805000      2012.042973     253.706210      0.100138        7.930602       
80              286.871000      2040.760482     254.119622      0.100106        8.030708       
81              286.892000      2069.483535     254.523161      0.100118        8.130826       
82              286.914000      2098.203339     254.917077      0.100099        8.230925       
83              286.903000      2126.925773     255.301444      0.100112        8.331037       
84              286.906000      2155.655392     255.676807      0.100136        8.431173       
85              286.912000      2184.382169     256.043386      0.100124        8.531297       
86              286.924000      2213.135397     256.401910      0.100212        8.631509       
87              286.871000      2241.859790     256.751314      0.100130        8.731639       
88              286.959000      2270.591847     257.093780      0.100126        8.831765       
89              286.977000      2299.329724     257.428815      0.100140        8.931905       
90              286.965000      2328.059512     257.756211      0.100116        9.032021       
91              286.963000      2356.782212     258.076330      0.100092        9.132113       
92              286.978000      2385.506414     258.389671      0.100092        9.232205       
93              286.983000      2414.240587     258.696444      0.100125        9.332330       
94              287.004000      2442.974854     258.996907      0.100118        9.432448       
95              287.019000      2471.738176     259.291494      0.100214        9.532662       
96              287.025000      2500.491192     259.579907      0.100176        9.632838       
97              287.058000      2529.236893     259.862619      0.100139        9.732977       
98              287.053000      2557.972908     260.139434      0.100107        9.833084       
99              287.066000      2586.715104     260.410847      0.100124        9.933208       
100             287.085000      2615.502265     260.677426      0.100274        10.033482      
101             287.098000      2644.283840     260.938797      0.100250        10.133732      
102             287.105000      2673.033673     261.194830      0.100137        10.233869      
103             287.111000      2701.784394     261.445961      0.100138        10.334007      
104             287.158000      2730.541545     261.692738      0.100144        10.434151      
105             287.164000      2759.309635     261.934966      0.100180        10.534331      
106             287.150000      2788.063974     262.172398      0.100137        10.634468      
107             287.154000      2816.816417     262.405418      0.100129        10.734597      
108             287.116000      2845.565916     262.633788      0.100132        10.834729      
109             287.134000      2874.318079     262.858146      0.100135        10.934864      
110             287.196000      2903.078748     263.079013      0.100143        11.035007      
111             287.142000      2931.828267     263.295378      0.100123        11.135130      
112             287.129000      2960.577345     263.507778      0.100126        11.235256      
113             287.129000      2989.327859     263.716436      0.100131        11.335387      
114             287.116000      3018.074487     263.921308      0.100122        11.435509      
115             287.137000      3046.827812     264.122837      0.100138        11.535647      
116             287.183000      3075.581723     264.321266      0.100124        11.635771      
117             287.183000      3104.335059     264.516306      0.100122        11.735893      
118             287.186000      3133.088409     264.708069      0.100121        11.836014      
119             287.206000      3161.844048     264.896785      0.100122        11.936136      
120             287.203000      3190.599387     265.082336      0.100122        12.036258      
121             287.236000      3219.357742     265.265096      0.100121        12.136379      
122             287.236000      3248.121268     265.444898      0.100139        12.236518      
123             287.264000      3276.892768     265.622039      0.100157        12.336675      
124             287.275000      3305.663360     265.796404      0.100150        12.436825      
125             287.323000      3334.435310     265.968346      0.100138        12.536963      
126             287.342000      3363.207727     266.137705      0.100133        12.637096      
127             287.315000      3391.976003     266.304181      0.100128        12.737224      
128             287.329000      3420.753439     266.468213      0.100155        12.837379      
129             287.382000      3449.551414     266.630200      0.100208        12.937587      
130             287.401000      3478.324566     266.789697      0.100115        13.037702      
131             287.387000      3507.101488     266.946684      0.100133        13.137835      
132             287.361000      3535.875807     267.101099      0.100133        13.237968      
133             287.335000      3564.645799     267.252992      0.100127        13.338095      
134             287.321000      3593.413239     267.402511      0.100123        13.438218      
135             287.341000      3622.184981     267.549978      0.100131        13.538349      
136             287.388000      3650.968613     267.695661      0.100156        13.638505      
137             287.348000      3679.741631     267.838896      0.100133        13.738638      
138             287.342000      3708.514047     267.980014      0.100133        13.838771      
139             287.374000      3737.290530     268.119339      0.100136        13.938907      
140             287.348000      3766.064122     268.256489      0.100135        14.039042      
141             287.429000      3794.846400     268.392274      0.100137        14.139179      
142             287.428000      3823.628002     268.526138      0.100135        14.239314      
143             287.433000      3852.407519     268.658157      0.100126        14.339440      
144             287.433000      3881.190772     268.788361      0.100139        14.439579      
145             287.412000      3909.971060     268.916623      0.100136        14.539715      
146             287.419000      3938.749750     269.043169      0.100128        14.639843      
147             287.472000      3967.534034     269.168356      0.100129        14.739972      
148             287.445000      3996.318201     269.291683      0.100138        14.840110      
149             287.457000      4025.100696     269.413425      0.100128        14.940238      
150             287.480000      4053.885493     269.533700      0.100128        15.040366      
151             287.501000      4082.679293     269.652550      0.100152        15.140518      
152             287.500000      4111.468681     269.769815      0.100137        15.240655      
153             287.511000      4140.254857     269.885603      0.100122        15.340777      
154             287.511000      4169.042471     269.999896      0.100127        15.440904      
155             287.507000      4197.833134     270.112703      0.100139        15.541043      
156             287.517000      4226.623649     270.224126      0.100135        15.641178      
157             287.517000      4255.412726     270.334125      0.100130        15.741308      
158             287.507000      4284.199652     270.442667      0.100126        15.841434      
159             287.507000      4312.986866     270.549846      0.100127        15.941561      
160             287.484000      4341.770914     270.655540      0.100124        16.041685      
161             287.484000      4370.560999     270.759945      0.100145        16.141830      
162             287.516000      4399.352276     270.863252      0.100138        16.241968      
163             287.523000      4428.142242     270.965330      0.100131        16.342099      
164             287.503000      4456.932217     271.066049      0.100138        16.442237      
165             287.533000      4485.734685     271.165763      0.100171        16.542408      
166             287.522000      4514.523688     271.264168      0.100128        16.642536      
167             287.535000      4543.313993     271.361475      0.100128        16.742664      
168             287.574000      4572.110503     271.457863      0.100136        16.842800      
169             287.503000      4600.898178     271.552688      0.100130        16.942930      
170             287.510000      4629.687704     271.646442      0.100134        17.043064      
171             287.473000      4658.496236     271.738958      0.100213        17.143277      
172             287.507000      4687.286037     271.830527      0.100136        17.243413      
173             287.555000      4716.080069     271.921313      0.100134        17.343547      
174             287.530000      4744.871598     272.010913      0.100134        17.443681      
175             287.538000      4773.663641     272.099536      0.100133        17.543814      
176             287.516000      4802.458081     272.187041      0.100149        17.643963      
177             287.530000      4831.249897     272.273626      0.100135        17.744098      
178             287.598000      4860.047948     272.359619      0.100133        17.844231      
179             287.580000      4888.845059     272.444554      0.100136        17.944367      
180             287.551000      4917.637828     272.528381      0.100131        18.044498      
181             287.539000      4946.425945     272.611207      0.100119        18.144617      
182             287.535000      4975.207048     272.693084      0.100096        18.244713      
183             287.551000      5003.997517     272.774176      0.100123        18.344836      
184             287.549000      5032.791811     272.854388      0.100137        18.444973      
185             287.508000      5061.582288     272.933513      0.100138        18.545111      
186             287.530000      5090.375542     273.011908      0.100140        18.645251      
187             287.532000      5119.169284     273.089476      0.100141        18.745392      
188             287.564000      5147.964793     273.166387      0.100136        18.845528      
189             287.562000      5176.762689     273.242481      0.100145        18.945673      
190             287.621000      5205.575698     273.318109      0.100177        19.045850      
191             287.640000      5234.379968     273.393017      0.100140        19.145990      
192             287.661000      5263.186340     273.467255      0.100140        19.246130      
193             287.681000      5292.017155     273.540885      0.100218        19.346348      
194             287.673000      5320.820126     273.613647      0.100124        19.446472      
195             287.733000      5349.624213     273.685959      0.100107        19.546579      
196             287.732000      5378.425036     273.757521      0.100096        19.646675      
197             287.732000      5407.263839     273.828450      0.100228        19.746903      
198             287.737000      5436.066888     273.898600      0.100102        19.847005      
199             287.737000      5464.877706     273.968065      0.100129        19.947134      
200             287.735000      5493.690626     274.036832      0.100137        20.047271      
201             287.675000      5522.509332     274.104644      0.100178        20.147449      
202             287.621000      5551.328668     274.171532      0.100199        20.247648      
203             287.596000      5580.128244     274.237599      0.100139        20.347787      
204             287.546000      5608.921950     274.302772      0.100136        20.447923      
205             287.563000      5637.709882     274.367375      0.100110        20.548033      
206             287.541000      5666.492449     274.431239      0.100099        20.648132      
207             287.529000      5695.273239     274.494427      0.100097        20.748229      
