#timestep       power           acc-energy      avg-power       dt              acc-time       
1               137.453000      13.758908       137.453000      0.100099        0.100099       
2               137.381000      30.834404       137.413118      0.124293        0.224392       
3               137.440000      44.596134       137.421413      0.100129        0.324521       
4               137.330000      58.345477       137.399860      0.100119        0.424640       
5               137.354000      72.097084       137.391110      0.100118        0.524758       
6               137.351000      85.845233       137.384685      0.100095        0.624853       
7               137.363000      99.593346       137.381691      0.100086        0.724939       
8               137.306000      113.340560      137.372506      0.100121        0.825060       
9               137.222000      127.078403      137.356220      0.100114        0.925174       
10              137.235000      140.816038      137.344384      0.100103        1.025277       
11              134.023000      154.233483      137.048919      0.100113        1.125390       
12              133.992000      167.648762      136.799179      0.100120        1.225510       
13              147.930000      182.459662      137.639857      0.100121        1.325631       
14              176.105000      200.092351      140.341132      0.100126        1.425757       
15              208.235000      220.953750      144.798547      0.100182        1.525939       
16              241.291000      245.114217      150.740354      0.100130        1.626069       
17              265.601000      271.709377      157.403093      0.100132        1.726201       
18              295.771000      301.316941      164.987286      0.100103        1.826304       
19              327.281000      334.083333      173.421767      0.100117        1.926421       
20              355.380000      369.664689      182.411471      0.100122        2.026543       
21              378.242000      407.534657      191.630957      0.100121        2.126664       
22              405.601000      448.145862      201.251965      0.100126        2.226790       
23              414.192000      489.638374      210.419131      0.100177        2.326967       
24              414.163000      531.106445      218.824192      0.100125        2.427092       
25              413.849000      572.542662      226.550743      0.100124        2.527216       
26              413.746000      613.970221      233.684748      0.100128        2.627344       
27              413.764000      655.398342      240.295432      0.100125        2.727469       
28              413.940000      696.861470      246.446668      0.100167        2.827636       
29              413.404000      738.252305      252.156191      0.100122        2.927758       
30              413.404000      779.643554      257.488175      0.100123        3.027881       
31              413.678000      821.062650      262.487640      0.100124        3.128005       
32              413.747000      862.488241      267.179071      0.100123        3.228128       
33              413.178000      903.856862      271.571123      0.100123        3.328251       
34              413.153000      945.230416      275.706633      0.100141        3.428392       
35              413.153000      986.595708      279.606652      0.100121        3.528513       
36              413.223000      1027.968834     283.293456      0.100123        3.628636       
37              413.289000      1069.341543     286.783463      0.100106        3.728742       
38              413.406000      1110.732165     290.094518      0.100121        3.828863       
39              413.472000      1152.129809     293.238536      0.100122        3.928985       
40              413.003000      1193.470583     296.213948      0.100098        4.029083       
41              413.029000      1234.810656     299.045512      0.100090        4.129173       
42              412.968000      1276.158664     301.742503      0.100124        4.229297       
43              413.042000      1317.549602     304.318622      0.100210        4.329507       
44              413.034000      1358.905045     306.775989      0.100126        4.429633       
45              413.250000      1400.280874     309.129426      0.100123        4.529756       
46              413.387000      1441.665047     311.383752      0.100110        4.629866       
47              413.477000      1483.062778     313.544789      0.100121        4.729987       
48              413.635000      1524.480878     315.619735      0.100132        4.830119       
49              413.720000      1565.906247     317.612065      0.100129        4.930248       
50              414.357000      1607.387941     319.537421      0.100111        5.030359       
51              414.488000      1648.884822     321.390285      0.100116        5.130475       
52              414.638000      1690.399622     323.175213      0.100123        5.230598       
53              414.749000      1731.928440     324.895294      0.100130        5.330728       
54              414.953000      1773.502996     326.556702      0.100191        5.430919       
55              414.868000      1815.063642     328.156176      0.100178        5.531097       
56              415.009000      1856.618908     329.700539      0.100131        5.631228       
57              415.003000      1898.171499     331.190762      0.100126        5.731354       
58              415.030000      1939.724302     332.630190      0.100120        5.831474       
59              415.011000      1981.276864     334.020759      0.100124        5.931598       
60              415.147000      2022.862139     335.368028      0.100170        6.031768       
61              415.176000      2064.426238     336.671011      0.100112        6.131880       
62              415.216000      2105.989360     337.932625      0.100100        6.231980       
63              415.207000      2147.559470     339.154437      0.100119        6.332099       
64              415.287000      2189.142987     340.339610      0.100132        6.432231       
65              415.115000      2230.717585     341.486037      0.100152        6.532383       
66              415.199000      2272.291876     342.598881      0.100131        6.632514       
67              415.199000      2313.865337     343.678602      0.100129        6.732643       
68              415.251000      2355.442758     344.727410      0.100126        6.832769       
69              415.288000      2397.024715     345.746477      0.100128        6.932897       
70              415.309000      2438.621234     346.737120      0.100158        7.033055       
71              415.330000      2480.215703     347.700143      0.100148        7.133203       
72              415.289000      2521.791115     348.635600      0.100112        7.233315       
73              415.236000      2563.366204     349.544900      0.100124        7.333439       
74              415.294000      2604.947101     350.430487      0.100124        7.433563       
75              415.368000      2646.539976     351.293611      0.100135        7.533698       
76              415.443000      2688.138283     352.135034      0.100130        7.633828       
77              415.481000      2729.739149     352.955137      0.100127        7.733955       
78              415.480000      2771.340746     353.754280      0.100129        7.834084       
79              415.509000      2812.944831     354.533611      0.100128        7.934212       
80              415.490000      2854.547429     355.293288      0.100129        8.034341       
81              415.481000      2896.149957     356.034166      0.100131        8.134472       
82              415.577000      2937.761267     356.758180      0.100129        8.234601       
83              415.600000      2979.374879     357.465074      0.100129        8.334730       
84              415.666000      3020.994269     358.155956      0.100127        8.434857       
85              415.627000      3062.598116     358.829983      0.100099        8.534956       
86              415.679000      3104.230446     359.489351      0.100155        8.635111       
87              415.657000      3145.841453     360.133054      0.100109        8.735220       
88              415.759000      3187.450198     360.763139      0.100079        8.835299       
89              415.693000      3229.052338     361.378370      0.100079        8.935378       
90              415.754000      3270.674302     361.980845      0.100112        9.035490       
91              415.759000      3312.305498     362.570292      0.100133        9.135623       
92              415.855000      3353.932583     363.147810      0.100100        9.235723       
93              415.867000      3395.580000     363.713330      0.100146        9.335869       
94              415.877000      3437.216358     364.266793      0.100117        9.435986       
95              415.705000      3478.835911     364.806834      0.100118        9.536104       
96              415.706000      3520.453901     365.335643      0.100114        9.636218       
97              415.680000      3562.076355     365.853397      0.100131        9.736349       
98              415.675000      3603.710363     366.360704      0.100160        9.836509       
99              415.425000      3645.313515     366.855196      0.100146        9.936655       
100             415.365000      3686.910243     367.339216      0.100145        10.036800      
101             415.337000      3728.504583     367.813401      0.100146        10.136946      
102             415.414000      3770.099571     368.278983      0.100129        10.237075      
103             415.188000      3811.670269     368.733339      0.100125        10.337200      
104             415.161000      3853.239095     369.178727      0.100127        10.437327      
105             415.328000      3894.824642     369.617238      0.100127        10.537454      
106             415.410000      3936.419229     370.048274      0.100129        10.637583      
107             415.410000      3978.014233     370.471276      0.100130        10.737713      
108             415.460000      4019.614658     370.886927      0.100131        10.837844      
109             415.449000      4061.212735     371.294856      0.100128        10.937972      
110             415.795000      4102.842131     371.698490      0.100120        11.038092      
111             415.823000      4144.475993     372.095136      0.100124        11.138216      
112             415.886000      4186.119074     372.485302      0.100131        11.238347      
113             415.863000      4227.763595     372.868408      0.100140        11.338487      
114             416.120000      4269.427194     373.246996      0.100124        11.438611      
115             416.141000      4311.102466     373.619281      0.100147        11.538758      
116             416.154000      4352.771966     373.985209      0.100130        11.638888      
117             416.140000      4394.454213     374.344897      0.100164        11.739052      
118             416.140000      4436.121479     374.698373      0.100128        11.839180      
119             416.156000      4477.790763     375.046057      0.100129        11.939309      
120             416.188000      4519.463252     375.388224      0.100129        12.039438      
121             416.193000      4561.135824     375.724785      0.100128        12.139566      
122             416.246000      4602.811623     376.056256      0.100123        12.239689      
123             416.240000      4644.487236     376.382303      0.100124        12.339813      
124             416.229000      4686.156754     376.702975      0.100112        12.439925      
125             416.246000      4727.831304     377.018687      0.100120        12.540045      
126             416.319000      4769.518990     377.330020      0.100134        12.640179      
127             416.342000      4811.206066     377.636618      0.100127        12.740306      
128             416.356000      4852.929517     377.938795      0.100211        12.840517      
129             416.331000      4894.644634     378.236057      0.100197        12.940714      
130             416.426000      4936.339287     378.529272      0.100125        13.040839      
131             416.386000      4978.028270     378.817702      0.100121        13.140960      
132             416.392000      5019.719935     379.101830      0.100126        13.241086      
133             416.462000      5061.417360     379.382210      0.100123        13.341209      
134             416.471000      5103.116103     379.658483      0.100124        13.441333      
135             416.410000      5144.808321     379.930217      0.100123        13.541456      
136             416.472000      5186.505081     380.198407      0.100119        13.641575      
137             416.418000      5228.197684     380.462303      0.100122        13.741697      
138             416.510000      5269.892834     380.723005      0.100106        13.841803      
139             416.455000      5311.586643     380.979594      0.100116        13.941919      
140             416.486000      5353.285221     381.232756      0.100120        14.042039      
141             416.487000      5394.984733     381.482344      0.100122        14.142161      
142             416.559000      5436.693536     381.728942      0.100127        14.242288      
143             416.512000      5478.396383     381.971762      0.100124        14.342412      
144             416.583000      5520.106756     382.211709      0.100125        14.442537      
145             416.616000      5561.821266     382.448585      0.100127        14.542664      
146             416.635000      5603.536013     382.682341      0.100123        14.642787      
147             416.539000      5645.242813     382.912280      0.100127        14.742914      
148             416.580000      5686.951636     383.139382      0.100122        14.843036      
149             416.641000      5728.667399     383.363853      0.100124        14.943160      
150             416.653000      5770.384364     383.585417      0.100124        15.043284      
151             416.640000      5812.100028     383.803965      0.100124        15.143408      
152             416.667000      5853.820894     384.019832      0.100130        15.243538      
153             416.683000      5895.540863     384.232973      0.100124        15.343662      
154             416.683000      5937.269999     384.443396      0.100146        15.443808      
155             416.582000      5978.977355     384.650400      0.100118        15.543926      
156             416.603000      6020.686398     384.854887      0.100117        15.644043      
157             416.639000      6062.399878     385.057006      0.100119        15.744162      
158             416.712000      6104.122334     385.257040      0.100123        15.844285      
159             416.670000      6145.846001     385.454323      0.100136        15.944421      
160             416.669000      6187.565818     385.649120      0.100127        16.044548      
161             416.670000      6229.286151     385.841509      0.100128        16.144676      
162             416.025000      6270.941487     386.027549      0.100127        16.244803      
163             416.031000      6312.590350     386.211315      0.100110        16.344913      
164             416.091000      6354.252710     386.393242      0.100128        16.445041      
165             416.105000      6395.916471     386.573052      0.100128        16.545169      
166             416.129000      6437.584300     386.750849      0.100132        16.645301      
167             416.111000      6479.249078     386.926408      0.100129        16.745430      
168             416.155000      6520.919927     387.100148      0.100133        16.845563      
169             416.173000      6562.591330     387.271936      0.100130        16.945693      
170             416.222000      6604.267638     387.441993      0.100130        17.045823      
171             416.156000      6645.969799     387.609809      0.100208        17.146031      
172             416.875000      6687.699403     387.779672      0.100101        17.246132      
173             416.804000      6729.429820     387.947196      0.100120        17.346252      
174             416.874000      6771.163493     388.113184      0.100111        17.446363      
175             416.900000      6812.902687     388.277438      0.100118        17.546481      
176             416.939000      6854.684978     388.440201      0.100212        17.646693      
177             416.925000      6896.430011     388.600910      0.100126        17.746819      
178             416.941000      6938.175811     388.759902      0.100124        17.846943      
179             416.934000      6979.921745     388.917084      0.100126        17.947069      
180             416.947000      7021.668563     389.072593      0.100125        18.047194      
181             416.958000      7063.421070     389.226463      0.100136        18.147330      
182             417.025000      7105.177366     389.379002      0.100129        18.247459      
183             416.985000      7146.929240     389.529655      0.100128        18.347587      
184             417.031000      7188.676545     389.678891      0.100106        18.447693      
185             417.029000      7230.433659     389.826540      0.100130        18.547823      
186             417.074000      7272.195279     389.972845      0.100130        18.647953      
187             417.095000      7313.956498     390.117690      0.100124        18.748077      
188             417.096000      7355.722406     390.261018      0.100135        18.848212      
189             417.062000      7397.482407     390.402643      0.100129        18.948341      
190             417.077000      7439.253086     390.542888      0.100151        19.048492      
191             417.059000      7481.011118     390.681537      0.100125        19.148617      
192             417.012000      7522.765696     390.818502      0.100128        19.248745      
193             417.012000      7564.520273     390.954051      0.100128        19.348873      
194             417.079000      7606.282394     391.088551      0.100130        19.449003      
195             417.129000      7648.050355     391.221932      0.100132        19.549135      
196             417.177000      7689.829380     391.354217      0.100147        19.649282      
197             417.216000      7731.604383     391.485335      0.100128        19.749410      
198             417.216000      7773.377718     391.615124      0.100124        19.849534      
199             417.218000      7815.249717     391.743922      0.100360        19.949894      
200             417.224000      7857.043462     391.871221      0.100171        20.050065      
201             417.262000      7898.817230     391.997373      0.100114        20.150179      
202             417.334000      7940.598206     392.122633      0.100114        20.250293      
203             417.381000      7982.385557     392.246896      0.100118        20.350411      
204             417.335000      8024.170806     392.369726      0.100124        20.450535      
205             417.285000      8065.955222     392.491126      0.100134        20.550669      
206             417.228000      8107.731428     392.611066      0.100128        20.650797      
207             417.243000      8149.508300     392.729919      0.100126        20.750923      
