#timestep       power           acc-energy      avg-power       dt              acc-time       
1               121.972000      12.213544       121.972000      0.100134        0.100134       
2               121.939000      24.711438       121.955308      0.102493        0.202627       
3               121.939000      37.180067       121.949838      0.102253        0.304880       
4               121.939000      49.649671       121.947116      0.102261        0.407141       
5               121.846000      62.109643       121.926818      0.102260        0.509401       
6               121.752000      74.555010       121.897601      0.102219        0.611620       
7               121.659000      87.013500       121.863381      0.102405        0.714025       
8               121.571000      99.444621       121.826755      0.102254        0.816279       
9               121.512000      111.871654      121.791710      0.102270        0.918549       
10              121.453000      124.297510      121.757765      0.102310        1.020859       
11              121.335000      136.709595      121.719260      0.102296        1.123155       
12              121.242000      149.110227      121.679426      0.102280        1.225435       
13              139.431000      163.385591      123.048182      0.102383        1.327818       
14              154.562000      179.209339      125.304042      0.102378        1.430196       
15              175.460000      198.267629      128.844357      0.108619        1.538815       
16              193.262000      218.051087      132.862303      0.102366        1.641181       
17              211.108000      239.664113      137.456763      0.102379        1.743560       
18              228.669000      263.066099      142.513732      0.102340        1.845900       
19              246.133000      288.261011      147.957956      0.102363        1.948263       
20              263.658000      315.254580      153.734427      0.102381        2.050644       
21              266.647000      342.546434      159.102216      0.102352        2.152996       
22              282.336000      371.448606      164.695635      0.102368        2.255364       
23              297.781000      401.927682      170.473179      0.102354        2.357718       
24              296.910000      432.313452      175.733032      0.102340        2.460058       
25              296.936000      462.693568      180.572504      0.102312        2.562370       
26              297.025000      493.128531      185.050236      0.102466        2.664836       
27              296.577000      523.487339      189.175824      0.102364        2.767200       
28              296.635000      553.852678      193.009214      0.102366        2.869566       
29              296.753000      584.228315      196.582390      0.102360        2.971926       
30              296.812000      614.598119      199.918328      0.102320        3.074246       
31              297.172000      645.006838      203.051162      0.102327        3.176573       
32              297.204000      675.420615      205.989624      0.102333        3.278906       
33              297.175000      705.834990      208.749658      0.102345        3.381251       
34              297.087000      736.243924      211.345227      0.102357        3.483608       
35              297.014000      766.632021      213.789494      0.102312        3.585920       
36              296.981000      797.031590      216.098332      0.102362        3.688282       
37              297.002000      827.433012      218.283023      0.102361        3.790643       
38              297.013000      857.829916      220.352741      0.102342        3.892985       
39              297.052000      888.235565      222.317725      0.102358        3.995343       
40              297.052000      918.639134      224.184415      0.102351        4.097694       
41              297.285000      949.061794      225.965534      0.102335        4.200029       
42              297.307000      979.791149      227.679017      0.103359        4.303388       
43              297.652000      1010.273988     229.305510      0.102411        4.405799       
44              297.823000      1040.752896     230.860922      0.102339        4.508138       
45              298.382000      1071.289309     232.359705      0.102340        4.610478       
46              298.580000      1101.860020     233.798341      0.102387        4.712865       
47              298.983000      1132.492921     235.185294      0.102457        4.815322       
48              299.067000      1163.100933     236.514781      0.102345        4.917667       
49              299.313000      1193.740408     237.795331      0.102366        5.020033       
50              299.097000      1224.360463     239.020489      0.102375        5.122408       
51              299.279000      1254.986282     240.200715      0.102332        5.224740       
52              299.313000      1285.626654     241.336653      0.102369        5.327109       
53              299.558000      1316.272336     242.433681      0.102303        5.429412       
54              299.559000      1347.610102     243.513555      0.104613        5.534025       
55              299.650000      1378.293962     244.533407      0.102399        5.636424       
56              299.591000      1408.984664     245.516216      0.102442        5.738866       
57              299.629000      1439.660681     246.464655      0.102380        5.841246       
58              299.661000      1470.338176     247.380919      0.102374        5.943620       
59              299.726000      1501.002244     248.266683      0.102307        6.045927       
60              300.229000      1531.702761     249.130924      0.102257        6.148184       
61              300.364000      1562.413177     249.968991      0.102244        6.250428       
62              300.430000      1593.135149     250.781268      0.102260        6.352688       
63              300.398000      1623.839730     251.566946      0.102213        6.454901       
64              300.399000      1655.232627     252.344935      0.104504        6.559405       
65              300.334000      1686.005149     253.083017      0.102461        6.661866       
66              300.302000      1716.703521     253.796633      0.102225        6.764091       
67              300.326000      1747.464412     254.490692      0.102425        6.866516       
68              300.326000      1778.207583     255.163968      0.102366        6.968882       
69              300.326000      1808.947150     255.817675      0.102354        7.071236       
70              300.367000      1839.699925     256.453496      0.102384        7.173620       
71              300.365000      1870.443184     257.071210      0.102353        7.275973       
72              300.353000      1901.179508     257.671510      0.102334        7.378307       
73              300.462000      1931.941408     258.257148      0.102382        7.480689       
74              300.472000      1963.733449     258.845908      0.105807        7.586496       
75              300.490000      1994.540886     259.401183      0.102524        7.689020       
76              300.522000      2025.320049     259.941719      0.102419        7.791439       
77              300.496000      2056.087834     260.467744      0.102390        7.893829       
78              300.488000      2086.850293     260.980122      0.102375        7.996204       
79              300.436000      2117.599017     261.478753      0.102347        8.098551       
80              300.406000      2148.346772     261.964597      0.102354        8.200905       
81              300.317000      2179.077010     262.437238      0.102326        8.303231       
82              300.294000      2209.811800     262.898194      0.102349        8.405580       
83              300.326000      2240.990444     263.354819      0.103816        8.509396       
84              300.390000      2271.977475     263.798404      0.103156        8.612552       
85              300.376000      2302.736578     264.228197      0.102402        8.714954       
86              300.469000      2333.515421     264.649224      0.102436        8.817390       
87              300.461000      2364.253482     265.059961      0.102303        8.919693       
88              300.411000      2394.992437     265.460894      0.102323        9.022016       
89              300.527000      2425.745065     265.854159      0.102329        9.124345       
90              300.589000      2456.503135     266.239377      0.102326        9.226671       
91              300.589000      2487.264511     266.616184      0.102337        9.329008       
92              300.589000      2518.031899     266.984885      0.102357        9.431365       
93              300.589000      2548.786663     267.345523      0.102315        9.533680       
94              300.500000      2579.545843     267.697710      0.102360        9.636040       
95              300.412000      2610.299019     268.041602      0.102370        9.738410       
96              300.442000      2641.054366     268.378642      0.102367        9.840777       
97              300.500000      2671.813546     268.709316      0.102360        9.943137       
98              300.624000      2702.584516     269.034506      0.102357        10.045494      
99              300.648000      2733.348022     269.353276      0.102324        10.147818      
100             300.591000      2764.112008     269.665176      0.102345        10.250163      
101             300.587000      2794.832901     269.970449      0.102203        10.352366      
102             300.656000      2825.561748     270.270438      0.102206        10.454572      
103             300.689000      2856.285549     270.564857      0.102178        10.556750      
104             300.689000      2887.050845     270.854017      0.102316        10.659066      
105             300.786000      2917.784256     271.138219      0.102177        10.761243      
106             300.786000      2948.534210     271.417222      0.102232        10.863475      
107             300.723000      2979.280130     271.690458      0.102240        10.965715      
108             300.678000      3010.048510     271.958463      0.102330        11.068045      
109             300.590000      3040.819307     272.220849      0.102368        11.170413      
110             300.594000      3071.588108     272.478485      0.102360        11.272773      
111             300.697000      3102.371062     272.732441      0.102372        11.375145      
112             300.714000      3133.152748     272.981994      0.102362        11.477507      
113             300.794000      3163.932096     273.227759      0.102327        11.579834      
114             300.897000      3194.764109     273.470450      0.102467        11.682301      
115             300.925000      3225.869221     273.711237      0.103365        11.785666      
116             300.929000      3257.181486     273.949431      0.104052        11.889718      
117             300.954000      3287.982322     274.179897      0.102344        11.992062      
118             301.027000      3318.796650     274.407124      0.102364        12.094426      
119             300.803000      3349.588650     274.628661      0.102366        12.196792      
120             300.862000      3380.391202     274.847033      0.102381        12.299173      
121             300.859000      3411.181112     275.061689      0.102340        12.401513      
122             300.762000      3441.984855     275.272199      0.102419        12.503932      
123             300.714000      3472.755115     275.478708      0.102324        12.606256      
124             300.594000      3503.552473     275.681182      0.102455        12.708711      
125             300.620000      3534.326642     275.880460      0.102369        12.811080      
126             300.561000      3565.097175     276.076125      0.102377        12.913457      
127             300.632000      3596.159676     276.271044      0.103324        13.016781      
128             300.719000      3627.222445     276.463524      0.103295        13.120076      
129             300.900000      3658.020162     276.652681      0.102352        13.222428      
130             300.900000      3689.118478     276.840737      0.103351        13.325779      
131             300.899000      3719.899543     277.024016      0.102297        13.428076      
132             300.806000      3751.365054     277.207845      0.104604        13.532680      
133             300.993000      3782.175299     277.386406      0.102362        13.635042      
134             300.993000      3813.012032     277.562457      0.102450        13.737492      
135             301.026000      3843.816926     277.735949      0.102333        13.839825      
136             301.013000      3874.627111     277.906835      0.102355        13.942180      
137             300.956000      3905.434773     278.074832      0.102366        14.044546      
138             300.854000      3936.227180     278.239635      0.102350        14.146896      
139             300.827000      3967.022238     278.401905      0.102368        14.249264      
140             300.916000      3997.828815     278.562507      0.102376        14.351640      
141             300.887000      4028.652883     278.720733      0.102444        14.454084      
142             300.919000      4060.117876     278.880165      0.104563        14.558647      
143             300.979000      4090.958592     279.034616      0.102468        14.661115      
144             300.950000      4121.767747     279.186582      0.102373        14.763488      
145             300.891000      4152.558223     279.335987      0.102331        14.865819      
146             300.891000      4183.351709     279.483364      0.102341        14.968160      
147             300.769000      4214.142334     279.627956      0.102373        15.070533      
148             300.854000      4244.937449     279.771150      0.102359        15.172892      
149             300.821000      4275.732795     279.912221      0.102371        15.275263      
150             300.821000      4306.527540     280.051411      0.102369        15.377632      
151             300.789000      4337.317806     280.188543      0.102365        15.479997      
152             300.798000      4369.458373     280.329825      0.106851        15.586848      
153             300.687000      4400.245114     280.462676      0.102388        15.689236      
154             300.687000      4431.051700     280.593888      0.102454        15.791690      
155             300.687000      4461.829119     280.723287      0.102357        15.894047      
156             300.687000      4492.607440     280.851034      0.102360        15.996407      
157             300.887000      4523.423083     280.978497      0.102416        16.098823      
158             300.916000      4554.222137     281.104452      0.102351        16.201174      
159             300.916000      4585.026005     281.228845      0.102367        16.303541      
160             300.821000      4615.813229     281.351066      0.102344        16.405885      
161             300.923000      4646.605175     281.472381      0.102325        16.508210      
162             300.993000      4677.395254     281.592598      0.102295        16.610505      
163             301.058000      4708.219078     281.711845      0.102385        16.712890      
164             301.123000      4739.036006     281.829984      0.102340        16.815230      
165             301.123000      4769.849922     281.946683      0.102330        16.917560      
166             301.101000      4800.686880     282.061940      0.102414        17.019974      
167             301.072000      4831.508825     282.175600      0.102374        17.122348      
168             301.026000      4862.347132     282.287713      0.102444        17.224792      
169             300.993000      4893.155271     282.398208      0.102355        17.327147      
170             301.091000      4923.978258     282.507999      0.102371        17.429518      
171             301.136000      4955.505089     282.619223      0.104693        17.534211      
172             301.102000      4986.292166     282.726378      0.102248        17.636459      
173             301.038000      5017.107319     282.832046      0.102363        17.738822      
174             301.072000      5047.916318     282.936664      0.102331        17.841153      
175             301.043000      5078.731380     283.039954      0.102361        17.943514      
176             300.954000      5109.540041     283.141576      0.102370        18.045884      
177             300.954000      5140.348100     283.242050      0.102368        18.148252      
178             301.013000      5171.169123     283.341750      0.102391        18.250643      
179             301.013000      5201.982017     283.440311      0.102364        18.353007      
180             301.014000      5232.793509     283.537780      0.102359        18.455366      
181             300.989000      5264.270337     283.636111      0.104578        18.559944      
182             300.922000      5295.106416     283.731025      0.102472        18.662416      
183             300.893000      5325.907328     283.824646      0.102365        18.764781      
184             300.922000      5356.718130     283.917430      0.102388        18.867169      
185             300.922000      5387.552103     284.009280      0.102465        18.969634      
186             300.993000      5418.362047     284.100433      0.102361        19.071995      
187             300.961000      5449.194599     284.190518      0.102447        19.174442      
188             300.962000      5480.004079     284.279583      0.102370        19.276812      
189             301.018000      5510.816883     284.367996      0.102362        19.379174      
190             301.053000      5541.622733     284.455635      0.102327        19.481501      
191             301.170000      5572.442664     284.542975      0.102334        19.583835      
192             301.209000      5603.439781     284.630093      0.102909        19.686744      
193             301.280000      5634.646966     284.717238      0.103582        19.790326      
194             301.215000      5665.510359     284.802214      0.102463        19.892789      
195             301.216000      5696.722963     284.887271      0.103622        19.996411      
196             301.215000      5727.544185     284.970396      0.102323        20.098734      
197             301.180000      5758.484708     285.052827      0.102731        20.201465      
198             301.151000      5789.297575     285.133951      0.102317        20.303782      
199             301.179000      5820.110897     285.214395      0.102309        20.406091      
200             301.210000      5850.943958     285.294234      0.102364        20.508455      
201             301.076000      5881.756075     285.372596      0.102340        20.610795      
202             301.076000      5912.607333     285.450282      0.102470        20.713265      
203             300.974000      5943.416838     285.526624      0.102366        20.815631      
204             300.937000      5974.217740     285.602025      0.102350        20.917981      
205             301.059000      6005.024204     285.677270      0.102327        21.020308      
206             301.145000      6035.859645     285.752251      0.102394        21.122702      
207             301.183000      6066.686629     285.826662      0.102353        21.225055      
