#timestep       power           acc-energy      avg-power       dt              acc-time       
1               138.880000      13.908554       138.880000      0.100148        0.100148       
2               138.962000      29.340145       138.923116      0.111049        0.211197       
3               138.938000      43.244366       138.927901      0.100075        0.311272       
4               138.830000      57.142915       138.904077      0.100112        0.411384       
5               138.885000      71.046275       138.900343      0.100107        0.511491       
6               138.782000      84.941407       138.880970      0.100122        0.611613       
7               138.773000      98.836886       138.865780      0.100131        0.711744       
8               138.815000      112.758920      138.859509      0.100292        0.812036       
9               138.788000      126.652293      138.851661      0.100105        0.912141       
10              138.679000      140.536280      138.834584      0.100116        1.012257       
11              134.730000      154.023426      138.465199      0.100105        1.112362       
12              134.663000      167.507232      138.151206      0.100130        1.212492       
13              142.590000      181.781632      138.489740      0.100108        1.312600       
14              167.852000      198.583785      140.570287      0.100101        1.412701       
15              197.149000      218.321357      144.314548      0.100115        1.512816       
16              224.451000      240.790698      149.288310      0.100108        1.612924       
17              249.228000      265.739916      155.128583      0.100106        1.713030       
18              275.234000      293.295794      161.760537      0.100118        1.813148       
19              299.841000      323.315575      168.986124      0.100119        1.913267       
20              325.409000      355.899103      176.765400      0.100131        2.013398       
21              356.021000      391.552826      185.258983      0.100145        2.113543       
22              381.379000      429.729246      194.127532      0.100101        2.213644       
23              387.818000      468.550991      202.507444      0.100103        2.313747       
24              387.820000      507.373324      210.192478      0.100104        2.413851       
25              388.206000      546.230027      217.280109      0.100093        2.513944       
26              387.059000      584.971924      223.781042      0.100093        2.614037       
27              387.230000      623.775855      229.815520      0.100209        2.714246       
28              386.039000      662.421833      235.372522      0.100109        2.814355       
29              387.260000      701.200501      240.591067      0.100136        2.914491       
30              385.728000      739.816888      245.410969      0.100113        3.014604       
31              385.717000      778.426002      249.919977      0.100097        3.114701       
32              385.081000      817.037304      254.135360      0.100268        3.214969       
33              385.081000      855.592384      258.090165      0.100122        3.315091       
34              384.998000      894.141079      261.810836      0.100127        3.415218       
35              384.304000      932.625666      265.300263      0.100141        3.515359       
36              383.725000      971.049585      268.580131      0.100134        3.615493       
37              384.138000      1009.517548     271.694561      0.100141        3.715634       
38              383.656000      1047.931105     274.632414      0.100125        3.815759       
39              383.838000      1086.361350     277.424576      0.100121        3.915880       
40              382.818000      1124.689471     280.052089      0.100121        4.016001       
41              383.423000      1163.084300     282.566887      0.100137        4.116138       
42              383.118000      1201.447820     284.954940      0.100135        4.216273       
43              383.631000      1239.887647     287.245547      0.100200        4.316473       
44              383.196000      1278.255529     289.420780      0.100126        4.416599       
45              384.060000      1316.713762     291.518932      0.100136        4.516735       
46              384.300000      1355.190262     293.530979      0.100121        4.616856       
47              384.014000      1393.633903     295.451335      0.100110        4.716966       
48              384.601000      1432.160924     297.305232      0.100174        4.817140       
49              384.597000      1470.674083     299.082904      0.100139        4.917279       
50              385.554000      1509.281533     300.808650      0.100135        5.017414       
51              384.857000      1547.818034     302.453175      0.100132        5.117546       
52              385.628000      1586.432894     304.049422      0.100135        5.217681       
53              384.991000      1624.974728     305.573202      0.100111        5.317792       
54              385.604000      1663.577544     307.051981      0.100110        5.417902       
55              384.447000      1702.068762     308.456265      0.100121        5.518023       
56              385.001000      1740.615447     309.820369      0.100121        5.618144       
57              385.334000      1779.198555     311.142640      0.100129        5.718273       
58              385.285000      1817.777528     312.418582      0.100131        5.818404       
59              384.835000      1856.312596     313.643774      0.100134        5.918538       
60              384.565000      1894.823704     314.823799      0.100142        6.018680       
61              385.593000      1933.437372     315.982012      0.100141        6.118821       
62              385.077000      1971.992437     317.094419      0.100123        6.218944       
63              385.766000      2010.618415     318.182546      0.100128        6.319072       
64              385.273000      2049.184628     319.228759      0.100101        6.419173       
65              386.098000      2087.829176     320.255399      0.100090        6.519263       
66              386.048000      2126.472195     321.250325      0.100099        6.619362       
67              385.264000      2165.037122     322.203939      0.100100        6.719462       
68              385.326000      2203.610181     323.130513      0.100105        6.819567       
69              385.204000      2242.209162     324.029388      0.100204        6.919771       
70              385.350000      2280.823544     324.904703      0.100206        7.019977       
71              384.368000      2319.316462     325.741067      0.100146        7.120123       
72              384.930000      2357.857963     326.561863      0.100126        7.220249       
73              384.349000      2396.345135     327.352337      0.100136        7.320385       
74              384.744000      2434.873784     328.126845      0.100141        7.420526       
75              384.744000      2473.401663     328.880712      0.100139        7.520665       
76              383.948000      2511.837162     329.604073      0.100106        7.620771       
77              383.948000      2550.281875     330.308843      0.100130        7.720901       
78              383.953000      2588.730544     330.995692      0.100139        7.821040       
79              384.097000      2627.194786     331.667015      0.100142        7.921182       
80              384.670000      2665.714101     332.328690      0.100136        8.021318       
81              384.268000      2704.195467     332.969130      0.100142        8.121460       
82              384.690000      2742.717939     333.599089      0.100139        8.221599       
83              384.223000      2781.199025     334.208352      0.100153        8.321752       
84              384.836000      2819.731499     334.810260      0.100127        8.421879       
85              384.219000      2858.204116     335.390803      0.100132        8.522011       
86              384.695000      2896.752479     335.963803      0.100205        8.622216       
87              384.351000      2935.238313     336.519285      0.100132        8.722348       
88              384.818000      2973.771679     337.067469      0.100134        8.822482       
89              384.752000      3012.298051     337.602603      0.100133        8.922615       
90              384.806000      3050.830600     338.126469      0.100135        9.022750       
91              384.907000      3089.374032     338.639954      0.100137        9.122887       
92              384.576000      3127.878935     339.138626      0.100123        9.223010       
93              385.560000      3166.591858     339.638553      0.100407        9.323417       
94              385.107000      3205.171107     340.121907      0.100178        9.423595       
95              385.643000      3243.787469     340.600528      0.100135        9.523730       
96              385.047000      3282.342995     341.062974      0.100132        9.623862       
97              385.587000      3320.954906     341.521484      0.100138        9.724000       
98              385.109000      3359.517025     341.965752      0.100133        9.824133       
99              385.399000      3398.097778     342.403864      0.100106        9.924239       
100             385.292000      3436.664736     342.832123      0.100098        10.024337      
101             385.284000      3475.242838     343.251964      0.100129        10.124466      
102             385.532000      3513.844229     343.665994      0.100125        10.224591      
103             385.174000      3552.405924     344.068482      0.100115        10.324706      
104             385.720000      3591.021896     344.468480      0.100114        10.424820      
105             385.274000      3629.598997     344.856683      0.100129        10.524949      
106             385.769000      3668.226047     345.242237      0.100130        10.625079      
107             385.181000      3706.794991     345.615111      0.100132        10.725211      
108             385.672000      3745.413485     345.985632      0.100133        10.825344      
109             385.333000      3784.004200     346.346311      0.100149        10.925493      
110             385.506000      3822.596820     346.701869      0.100109        11.025602      
111             385.457000      3861.178753     347.050535      0.100094        11.125696      
112             385.158000      3899.739616     347.390395      0.100117        11.225813      
113             384.803000      3938.272634     347.721174      0.100137        11.325950      
114             384.330000      3976.754060     348.041975      0.100126        11.426076      
115             384.823000      4015.285617     348.361492      0.100128        11.526204      
116             384.275000      4053.763841     348.670797      0.100132        11.626336      
117             384.742000      4092.287288     348.978796      0.100128        11.726464      
118             384.078000      4130.748859     349.275993      0.100140        11.826604      
119             383.974000      4169.197328     349.567306      0.100133        11.926737      
120             383.710000      4207.611687     349.851514      0.100113        12.026850      
121             383.750000      4246.031202     350.131369      0.100116        12.126966      
122             384.024000      4284.477765     350.408880      0.100115        12.227081      
123             384.272000      4323.033312     350.684496      0.100334        12.327415      
124             384.565000      4361.562494     350.957634      0.100189        12.427604      
125             384.565000      4400.067834     351.226238      0.100127        12.527731      
126             384.693000      4438.584067     351.491585      0.100122        12.627853      
127             384.693000      4477.099530     351.752752      0.100120        12.727973      
128             384.174000      4515.564183     352.005799      0.100123        12.828096      
129             384.581000      4554.099969     352.258276      0.100202        12.928298      
130             383.957000      4592.545199     352.501894      0.100129        13.028427      
131             384.335000      4631.030200     352.744692      0.100134        13.128561      
132             384.302000      4669.508053     352.983539      0.100124        13.228685      
133             383.884000      4707.936761     353.215615      0.100105        13.328790      
134             383.823000      4746.355908     353.443756      0.100096        13.428886      
135             383.498000      4784.745209     353.666132      0.100103        13.528989      
136             383.764000      4823.171882     353.887256      0.100131        13.629120      
137             383.353000      4861.559318     354.102168      0.100136        13.729256      
138             383.884000      4899.999542     354.317811      0.100135        13.829391      
139             383.395000      4938.390800     354.526837      0.100135        13.929526      
140             383.824000      4976.823481     354.735934      0.100131        14.029657      
141             383.627000      5015.228380     354.940629      0.100110        14.129767      
142             383.915000      5053.669789     355.144509      0.100130        14.229897      
143             383.677000      5092.090820     355.343896      0.100139        14.330036      
144             383.702000      5130.541214     355.540825      0.100209        14.430245      
145             384.381000      5169.048118     355.739662      0.100179        14.530424      
146             384.230000      5207.519531     355.934639      0.100126        14.630550      
147             384.569000      5246.019503     356.129243      0.100112        14.730662      
148             384.113000      5284.490340     356.318222      0.100155        14.830817      
149             385.161000      5323.059978     356.511665      0.100139        14.930956      
150             384.541000      5361.567529     356.698399      0.100139        15.031095      
151             385.087000      5400.129371     356.886274      0.100138        15.131233      
152             384.467000      5438.629896     357.067606      0.100140        15.231373      
153             384.803000      5477.182155     357.248848      0.100187        15.331560      
154             384.393000      5515.673348     357.424985      0.100135        15.431695      
155             383.909000      5554.116843     357.595733      0.100137        15.531832      
156             383.749000      5592.536642     357.763235      0.100117        15.631949      
157             383.812000      5630.970040     357.929037      0.100136        15.732085      
158             383.831000      5669.432209     358.092977      0.100206        15.832291      
159             383.065000      5707.783145     358.249896      0.100116        15.932407      
160             383.535000      5746.186888     358.407813      0.100131        16.032538      
161             383.259000      5784.563761     358.562061      0.100133        16.132671      
162             384.340000      5823.081548     358.721208      0.100218        16.232889      
163             384.063000      5861.537776     358.876566      0.100130        16.333019      
164             384.265000      5900.014615     359.031264      0.100131        16.433150      
165             384.447000      5938.552351     359.185360      0.100242        16.533392      
166             384.836000      5977.090597     359.339789      0.100142        16.633534      
167             385.034000      6015.648672     359.493555      0.100142        16.733676      
168             384.717000      6054.228093     359.643811      0.100280        16.833956      
169             385.119000      6092.792369     359.794453      0.100136        16.934092      
170             384.644000      6131.323313     359.940585      0.100173        17.034265      
171             384.767000      6169.876581     360.085765      0.100199        17.134464      
172             383.899000      6208.318691     360.224124      0.100136        17.234600      
173             383.899000      6246.758882     360.360878      0.100131        17.334731      
174             384.295000      6285.249869     360.498375      0.100160        17.434891      
175             383.810000      6323.682684     360.631497      0.100135        17.535026      
176             383.810000      6362.118569     360.763119      0.100143        17.635169      
177             383.336000      6400.506219     360.890575      0.100141        17.735310      
178             383.568000      6438.917102     361.017902      0.100141        17.835451      
179             383.568000      6477.328752     361.143810      0.100143        17.935594      
180             383.168000      6515.699962     361.266098      0.100142        18.035736      
181             383.549000      6554.109326     361.389138      0.100142        18.135878      
182             383.151000      6592.478067     361.508640      0.100140        18.236018      
183             383.542000      6630.884429     361.628967      0.100136        18.336154      
184             383.224000      6669.260480     361.746264      0.100140        18.436294      
185             383.390000      6707.648554     361.863177      0.100128        18.536422      
186             383.188000      6746.015636     361.977746      0.100126        18.636548      
187             383.213000      6784.412812     362.091305      0.100198        18.736746      
188             383.232000      6822.789281     362.203691      0.100139        18.836885      
189             383.095000      6861.152798     362.314167      0.100141        18.937026      
190             383.259000      6899.531971     362.424341      0.100139        19.037165      
191             382.947000      6937.882581     362.531736      0.100146        19.137311      
192             383.239000      6976.254003     362.639510      0.100124        19.237435      
193             382.795000      7014.579438     362.743865      0.100120        19.337555      
194             383.168000      7052.952181     362.849093      0.100146        19.437701      
195             382.821000      7091.292852     362.951471      0.100153        19.537854      
196             383.158000      7129.661528     363.054508      0.100138        19.637992      
197             383.037000      7168.053710     363.155980      0.100231        19.738223      
198             383.142000      7206.419634     363.256860      0.100135        19.838358      
199             383.196000      7244.794797     363.357008      0.100145        19.938503      
200             383.147000      7283.179996     363.455949      0.100184        20.038687      
201             383.323000      7321.564428     363.554733      0.100136        20.138823      
202             383.029000      7359.920186     363.651088      0.100138        20.238961      
203             383.369000      7398.317658     363.748187      0.100158        20.339119      
204             383.004000      7436.700787     363.842600      0.100216        20.439335      
205             383.329000      7475.086970     363.937605      0.100139        20.539474      
206             382.975000      7513.444597     364.029987      0.100157        20.639631      
207             383.198000      7551.831457     364.122570      0.100175        20.739806      
