#timestep       power           acc-energy      avg-power       dt              acc-time       
1               137.089000      13.724117       137.089000      0.100111        0.100111       
2               137.032000      29.015792       137.058954      0.111592        0.211703       
3               137.017000      42.741470       137.045479      0.100175        0.311878       
4               137.042000      56.462800       137.044633      0.100125        0.412003       
5               137.014000      70.181327       137.038644      0.100125        0.512128       
6               136.922000      83.896804       137.019562      0.100170        0.612298       
7               136.913000      97.605081       137.004585      0.100124        0.712422       
8               136.837000      111.306022      136.983935      0.100126        0.812548       
9               136.859000      125.009166      136.970229      0.100126        0.912674       
10              136.811000      138.707778      136.954487      0.100128        1.012802       
11              133.852000      152.110111      136.675363      0.100128        1.112930       
12              133.752000      165.501763      136.434074      0.100123        1.213053       
13              142.029000      179.722132      136.860659      0.100123        1.313176       
14              159.352000      195.676773      138.454009      0.100122        1.413298       
15              175.231000      213.221777      140.887100      0.100125        1.513423       
16              196.468000      232.893529      144.336109      0.100127        1.613550       
17              208.423000      253.761256      148.080412      0.100122        1.713672       
18              226.721000      276.460109      152.421234      0.100118        1.813790       
19              246.972000      301.187440      157.367444      0.100122        1.913912       
20              263.670000      327.582916      162.651273      0.100108        2.014020       
21              280.616000      355.680435      168.238191      0.100128        2.114148       
22              297.297000      385.447892      174.074084      0.100127        2.214275       
23              302.500000      415.732982      179.629536      0.100116        2.314391       
24              302.063000      445.975831      184.706405      0.100121        2.414512       
25              302.213000      476.234908      189.385151      0.100125        2.514637       
26              301.978000      506.471059      193.696662      0.100127        2.614764       
27              301.978000      536.706909      197.690112      0.100126        2.714890       
28              302.100000      566.954671      201.403783      0.100125        2.815015       
29              302.100000      597.204548      204.862584      0.100132        2.915147       
30              302.100000      627.453821      208.091602      0.100130        3.015277       
31              302.094000      657.701285      211.112747      0.100126        3.115403       
32              302.181000      687.962597      213.948921      0.100143        3.215546       
33              302.207000      718.221677      216.614147      0.100127        3.315673       
34              302.149000      748.474950      219.121421      0.100127        3.415800       
35              302.237000      778.734616      221.488213      0.100119        3.515919       
36              302.163000      808.988989      223.722047      0.100126        3.616045       
37              302.264000      839.253474      225.838228      0.100126        3.716171       
38              302.190000      869.509946      227.841387      0.100124        3.816295       
39              302.275000      899.774626      229.744278      0.100123        3.916418       
40              302.261000      930.037904      231.551951      0.100123        4.016541       
41              302.323000      960.305575      233.273101      0.100117        4.116658       
42              302.405000      990.577526      234.914260      0.100104        4.216762       
43              302.358000      1020.872588     236.479620      0.100196        4.316958       
44              301.821000      1051.092717     237.960772      0.100126        4.417084       
45              301.789000      1081.308134     239.375484      0.100121        4.517205       
46              301.809000      1111.525854     240.729291      0.100122        4.617327       
47              301.843000      1141.748488     242.026417      0.100127        4.717454       
48              301.869000      1171.974329     243.270190      0.100129        4.817583       
49              301.939000      1202.206274     244.464704      0.100126        4.917709       
50              301.878000      1232.437846     245.610543      0.100145        5.017854       
51              301.961000      1262.671993     246.712960      0.100126        5.117980       
52              301.920000      1292.901431     247.772262      0.100124        5.218104       
53              302.589000      1323.198760     248.804304      0.100127        5.318231       
54              302.614000      1353.498895     249.798674      0.100128        5.418359       
55              302.605000      1383.797220     250.756769      0.100125        5.518484       
56              302.671000      1414.102457     251.681903      0.100126        5.618610       
57              302.607000      1444.399772     252.573477      0.100121        5.718731       
58              302.706000      1474.710632     253.436175      0.100133        5.818864       
59              302.706000      1505.022400     254.269708      0.100136        5.919000       
60              302.691000      1535.328731     255.075155      0.100123        6.019123       
61              302.656000      1565.630650     255.853649      0.100120        6.119243       
62              302.656000      1595.962229     256.607804      0.100218        6.219461       
63              302.725000      1626.294366     257.338983      0.100197        6.319658       
64              302.691000      1656.601605     258.046315      0.100126        6.419784       
65              302.758000      1686.916461     258.732971      0.100129        6.519913       
66              302.758000      1717.243729     259.399124      0.100170        6.620083       
67              302.725000      1747.554978     260.044659      0.100128        6.720211       
68              302.770000      1777.870733     260.671901      0.100128        6.820339       
69              302.765000      1808.186592     261.280932      0.100130        6.920469       
70              302.791000      1838.504147     261.872945      0.100127        7.020596       
71              302.769000      1868.891557     262.449346      0.100365        7.120961       
72              302.811000      1899.252902     263.009758      0.100265        7.221226       
73              302.857000      1929.575248     263.554678      0.100121        7.321347       
74              302.748000      1959.890011     264.083481      0.100132        7.421479       
75              302.824000      1990.210869     264.599192      0.100127        7.521606       
76              302.712000      2020.520514     265.099881      0.100127        7.621733       
77              302.811000      2050.839465     265.588860      0.100125        7.721858       
78              302.759000      2081.152907     266.064651      0.100124        7.821982       
79              302.813000      2111.471151     266.529088      0.100122        7.922104       
80              302.799000      2141.788295     266.981761      0.100123        8.022227       
81              302.772000      2172.115149     267.423121      0.100164        8.122391       
82              302.799000      2202.453792     267.854184      0.100194        8.222585       
83              302.746000      2232.770777     268.274006      0.100140        8.322725       
84              302.774000      2263.089051     268.684159      0.100135        8.422860       
85              302.732000      2293.402212     269.084168      0.100132        8.522992       
86              302.772000      2323.738755     269.475599      0.100196        8.623188       
87              302.772000      2354.048352     269.857703      0.100107        8.723295       
88              302.744000      2384.359687     270.230874      0.100122        8.823417       
89              302.777000      2414.675537     270.596055      0.100126        8.923543       
90              302.719000      2444.988606     270.952525      0.100136        9.023679       
91              302.784000      2475.300615     271.301796      0.100111        9.123790       
92              302.743000      2505.617299     271.643139      0.100140        9.223930       
93              302.805000      2535.932016     271.977726      0.100113        9.324043       
94              302.810000      2566.252684     272.305317      0.100131        9.424174       
95              302.799000      2596.570737     272.625887      0.100126        9.524300       
96              302.838000      2626.884215     272.940107      0.100098        9.624398       
97              302.744000      2657.188890     273.246896      0.100100        9.724498       
98              302.870000      2687.511628     273.548771      0.100118        9.824616       
99              302.797000      2717.834023     273.843886      0.100141        9.924757       
100             302.797000      2748.157628     274.133117      0.100145        10.024902      
101             302.818000      2778.481823     274.416819      0.100140        10.125042      
102             302.767000      2808.832095     274.694749      0.100243        10.225285      
103             302.793000      2839.138041     274.967117      0.100088        10.325373      
104             302.680000      2869.431769     275.233162      0.100085        10.425458      
105             302.724000      2899.740798     275.494659      0.100121        10.525579      
106             302.724000      2930.056185     275.751282      0.100142        10.625721      
107             302.682000      2960.367669     276.002723      0.100143        10.725864      
108             302.670000      2990.704283     276.249613      0.100230        10.826094      
109             302.624000      3021.058075     276.491725      0.100302        10.926396      
110             302.624000      3051.363448     276.729056      0.100142        11.026538      
111             302.625000      3081.668315     276.962119      0.100140        11.126678      
112             302.569000      3112.001463     277.190778      0.100252        11.226930      
113             302.639000      3142.301982     277.415718      0.100121        11.327051      
114             302.584000      3172.595179     277.636220      0.100115        11.427166      
115             302.751000      3202.899949     277.854307      0.100098        11.527264      
116             302.710000      3233.201220     278.068290      0.100100        11.627364      
117             302.756000      3263.506490     278.279008      0.100098        11.727462      
118             302.776000      3293.821937     278.486384      0.100125        11.827587      
119             302.763000      3324.143046     278.690216      0.100148        11.927735      
120             302.834000      3354.594519     278.892055      0.100555        12.028290      
121             302.826000      3384.939804     279.089800      0.100207        12.128497      
122             302.859000      3415.252355     279.284345      0.100088        12.228585      
123             302.812000      3445.568984     279.475405      0.100117        12.328702      
124             302.797000      3475.891076     279.663309      0.100140        12.428842      
125             302.863000      3506.216748     279.848718      0.100130        12.528972      
126             302.857000      3536.544242     280.031154      0.100138        12.629110      
127             302.892000      3566.873424     280.210984      0.100132        12.729242      
128             302.865000      3597.220194     280.387914      0.100199        12.829441      
129             302.893000      3627.566438     280.562299      0.100188        12.929629      
130             302.860000      3657.892718     280.733656      0.100133        13.029762      
131             302.068000      3688.142714     280.896375      0.100143        13.129905      
132             302.026000      3718.388202     281.056311      0.100142        13.230047      
133             302.016000      3748.631178     281.213761      0.100137        13.330184      
134             302.031000      3778.875656     281.368975      0.100137        13.430321      
135             301.911000      3809.108722     281.521007      0.100139        13.530460      
136             301.979000      3839.361582     281.671368      0.100182        13.630642      
137             301.895000      3869.594555     281.818867      0.100144        13.730786      
138             301.984000      3899.871773     281.965044      0.100261        13.831047      
139             301.919000      3930.106545     282.108479      0.100142        13.931189      
140             301.919000      3960.339808     282.249861      0.100137        14.031326      
141             302.827000      3990.665812     282.395681      0.100143        14.131469      
142             302.788000      4020.987608     282.539173      0.100142        14.231611      
143             302.863000      4051.317218     282.681186      0.100143        14.331754      
144             302.837000      4081.644223     282.821047      0.100143        14.431897      
145             302.905000      4111.977433     282.959447      0.100141        14.532038      
146             302.905000      4142.355776     283.096154      0.100290        14.632328      
147             302.904000      4172.769155     283.231147      0.100406        14.732734      
148             302.913000      4203.103468     283.364027      0.100142        14.832876      
149             302.904000      4233.439910     283.495076      0.100152        14.933028      
150             302.912000      4263.774426     283.624421      0.100143        15.033171      
151             302.920000      4294.110046     283.752109      0.100144        15.133315      
152             302.905000      4324.442650     283.878013      0.100139        15.233454      
153             302.957000      4354.792277     284.002660      0.100178        15.333632      
154             302.852000      4385.118664     284.124957      0.100136        15.433768      
155             302.950000      4415.453048     284.246301      0.100130        15.533898      
156             302.865000      4445.778012     284.365543      0.100127        15.634025      
157             302.913000      4476.108388     284.483576      0.100129        15.734154      
158             302.898000      4506.447863     284.600061      0.100164        15.834318      
159             302.899000      4536.843778     284.715300      0.100350        15.934668      
160             302.918000      4567.267044     284.829310      0.100434        16.035102      
161             302.892000      4597.594105     284.941396      0.100125        16.135227      
162             302.925000      4627.929621     285.052321      0.100142        16.235369      
163             302.929000      4658.279169     285.161960      0.100187        16.335556      
164             302.923000      4688.609940     285.270161      0.100127        16.435683      
165             302.901000      4718.937902     285.376917      0.100125        16.535808      
166             302.894000      4749.265770     285.482347      0.100127        16.635935      
167             302.895000      4779.594949     285.586526      0.100131        16.736066      
168             302.907000      4809.924421     285.689534      0.100128        16.836194      
169             302.910000      4840.254800     285.791344      0.100130        16.936324      
170             302.876000      4870.582682     285.891760      0.100133        17.036457      
171             302.890000      4900.937712     285.991169      0.100218        17.136675      
172             302.876000      4931.260446     286.089240      0.100116        17.236791      
173             302.865000      4961.586318     286.186129      0.100130        17.336921      
174             302.890000      4991.915905     286.282053      0.100134        17.437055      
175             302.838000      5022.238469     286.376579      0.100128        17.537183      
176             302.903000      5052.566026     286.470396      0.100123        17.637306      
177             302.836000      5082.892931     286.562793      0.100143        17.737449      
178             302.735000      5113.205181     286.653573      0.100128        17.837577      
179             302.702000      5143.513825     286.743154      0.100127        17.937704      
180             302.702000      5173.816716     286.831724      0.100108        18.037812      
181             302.723000      5204.123829     286.919438      0.100115        18.137927      
182             302.710000      5234.435090     287.006134      0.100133        18.238060      
183             302.697000      5264.745351     287.091812      0.100134        18.338194      
184             302.737000      5295.064765     287.176792      0.100151        18.438345      
185             302.726000      5325.377324     287.260778      0.100132        18.538477      
186             302.744000      5355.691687     287.343958      0.100132        18.638609      
187             302.705000      5386.002446     287.426042      0.100133        18.738742      
188             302.721000      5416.314506     287.507338      0.100132        18.838874      
189             302.872000      5446.640776     287.588569      0.100129        18.939003      
190             302.871000      5476.963918     287.668933      0.100119        19.039122      
191             302.917000      5507.292574     287.748700      0.100122        19.139244      
192             302.895000      5537.619935     287.827524      0.100125        19.239369      
193             302.949000      5567.958763     287.905827      0.100145        19.339514      
194             302.722000      5598.269711     287.982140      0.100128        19.439642      
195             302.462000      5628.554022     288.056338      0.100126        19.539768      
196             302.499000      5658.842037     288.129968      0.100126        19.639894      
197             302.400000      5689.119837     288.202349      0.100125        19.740019      
198             302.595000      5719.417464     288.274983      0.100126        19.840145      
199             302.414000      5749.696665     288.345979      0.100125        19.940270      
200             302.551000      5779.990189     288.416950      0.100127        20.040397      
201             302.326000      5810.260580     288.486097      0.100125        20.140522      
202             302.536000      5840.551392     288.555597      0.100123        20.240645      
203             302.311000      5870.818165     288.623301      0.100118        20.340763      
204             302.781000      5901.132901     288.692647      0.100121        20.440884      
205             302.874000      5931.462704     288.761782      0.100140        20.541024      
206             302.913000      5961.783992     288.830409      0.100099        20.641123      
207             302.939000      5992.113942     288.898512      0.100119        20.741242      
