#timestep       power           acc-energy      avg-power       dt              acc-time       
1               137.830000      13.800091       137.830000      0.100124        0.100124       
2               137.763000      28.968762       137.794909      0.110107        0.210231       
3               137.742000      42.763347       137.777837      0.100148        0.310379       
4               137.748000      56.555366       137.770560      0.100125        0.410504       
5               137.708000      70.343930       137.758293      0.100129        0.510633       
6               137.728000      84.140833       137.753324      0.100175        0.610808       
7               137.626000      97.923526       137.735389      0.100146        0.710954       
8               137.629000      111.703905      137.722256      0.100127        0.811081       
9               137.581000      125.478102      137.706735      0.100117        0.911198       
10              137.582000      139.254875      137.694385      0.100135        1.011333       
11              133.874000      152.659010      137.350228      0.100125        1.111458       
12              133.769000      166.049554      137.054338      0.100102        1.211560       
13              142.653000      180.332828      137.481706      0.100126        1.311686       
14              177.037000      198.059012      140.287001      0.100127        1.411813       
15              205.701000      218.655236      144.618990      0.100127        1.511940       
16              233.922000      242.077378      150.165736      0.100128        1.612068       
17              259.654000      268.074716      156.568231      0.100123        1.712191       
18              290.613000      297.169436      163.973102      0.100115        1.812306       
19              321.001000      329.313834      172.195282      0.100138        1.912444       
20              348.945000      364.261723      180.990890      0.100153        2.012597       
21              371.291000      401.437605      190.009578      0.100126        2.112723       
22              404.589000      441.950316      199.719420      0.100133        2.212856       
23              418.465000      483.851216      209.188995      0.100130        2.312986       
24              418.194000      525.725400      217.861546      0.100131        2.413117       
25              418.005000      567.576478      225.834751      0.100121        2.513238       
26              418.583000      609.475799      233.217542      0.100098        2.613336       
27              418.776000      651.393183      240.062557      0.100095        2.713431       
28              418.962000      693.340078      246.428741      0.100121        2.813552       
29              419.180000      735.316763      252.365989      0.100140        2.913692       
30              419.347000      777.322752      257.915841      0.100170        3.013862       
31              419.347000      819.315741      263.107090      0.100139        3.114001       
32              419.735000      861.345485      267.986717      0.100134        3.214135       
33              419.735000      903.366415      272.570555      0.100113        3.314248       
34              419.991000      945.402475      276.892044      0.100088        3.414336       
35              420.258000      987.538382      280.981888      0.100262        3.514598       
36              420.463000      1029.641865     284.845819      0.100136        3.614734       
37              420.679000      1071.756461     288.506374      0.100111        3.714845       
38              420.874000      1113.894786     291.980266      0.100121        3.814966       
39              421.028000      1156.047268     295.280323      0.100118        3.915084       
40              421.145000      1198.211884     298.418756      0.100119        4.015203       
41              421.348000      1240.397667     301.409480      0.100121        4.115324       
42              421.560000      1282.610578     304.263564      0.100135        4.215459       
43              421.593000      1324.865158     306.988383      0.100226        4.315685       
44              421.800000      1367.102101     309.591899      0.100135        4.415820       
45              421.981000      1409.344931     312.083265      0.100106        4.515926       
46              422.166000      1451.600370     314.470258      0.100092        4.616018       
47              422.358000      1493.896989     316.761169      0.100144        4.716162       
48              422.543000      1536.200727     318.960078      0.100117        4.816279       
49              422.695000      1578.513342     321.072216      0.100102        4.916381       
50              422.929000      1620.851495     323.104829      0.100107        5.016488       
51              422.868000      1663.196228     325.057284      0.100137        5.116625       
52              422.868000      1705.540961     326.934785      0.100137        5.216762       
53              423.270000      1747.925526     328.749118      0.100136        5.316898       
54              423.458000      1790.328069     330.499814      0.100134        5.417032       
55              423.613000      1832.744863     332.189726      0.100131        5.517163       
56              423.613000      1875.162927     333.819438      0.100134        5.617297       
57              423.785000      1917.598214     335.395078      0.100134        5.717431       
58              423.989000      1960.053928     336.919988      0.100134        5.817565       
59              424.175000      2002.518936     338.396120      0.100112        5.917677       
60              424.356000      2045.005034     339.826248      0.100119        6.017796       
61              424.509000      2087.514517     341.212330      0.100138        6.117934       
62              424.918000      2130.062406     342.560276      0.100132        6.218066       
63              424.954000      2172.616024     343.866132      0.100137        6.318203       
64              422.754000      2214.949342     345.096916      0.100137        6.418340       
65              422.910000      2257.297435     346.292259      0.100135        6.518475       
66              423.040000      2299.657699     347.453377      0.100133        6.618608       
67              423.312000      2342.065942     348.584483      0.100182        6.718790       
68              423.504000      2384.475632     349.684721      0.100140        6.818930       
69              423.668000      2426.898356     350.755400      0.100132        6.919062       
70              423.890000      2469.331017     351.798400      0.100103        7.019165       
71              424.102000      2511.791685     352.815211      0.100119        7.119284       
72              424.226000      2554.271132     353.805685      0.100134        7.219418       
73              424.512000      2596.777943     354.772943      0.100131        7.319549       
74              427.244000      2639.559166     355.750983      0.100133        7.419682       
75              427.415000      2682.395125     356.706080      0.100221        7.519903       
76              427.551000      2725.209227     357.637082      0.100138        7.620041       
77              427.685000      2768.036747     358.545669      0.100138        7.720179       
78              427.960000      2810.880251     359.434273      0.100111        7.820290       
79              427.980000      2853.728753     360.300726      0.100118        7.920408       
80              428.131000      2896.597938     361.147541      0.100131        8.020539       
81              427.068000      2939.367090     361.960486      0.100146        8.120685       
82              426.817000      2982.104703     362.750450      0.100131        8.220816       
83              426.470000      3024.805864     363.517196      0.100127        8.320943       
84              426.511000      3067.511984     364.266210      0.100129        8.421072       
85              426.676000      3110.238466     364.999626      0.100138        8.521210       
86              426.679000      3152.993408     365.716506      0.100204        8.621414       
87              426.783000      3195.729324     366.417631      0.100135        8.721549       
88              426.886000      3238.476834     367.104028      0.100138        8.821687       
89              426.844000      3281.211602     367.774414      0.100118        8.921805       
90              426.996000      3323.966711     368.431685      0.100130        9.021935       
91              426.996000      3366.725237     369.074577      0.100138        9.122073       
92              429.051000      3409.688688     369.725809      0.100136        9.222209       
93              429.354000      3452.681621     370.366293      0.100134        9.322343       
94              429.600000      3495.696180     370.995735      0.100127        9.422470       
95              429.949000      3538.744824     371.615597      0.100125        9.522595       
96              429.949000      3581.793467     372.222559      0.100125        9.622720       
97              430.021000      3624.859641     372.817904      0.100149        9.722869       
98              430.313000      3667.960221     373.404155      0.100161        9.823030       
99              430.508000      3711.067848     373.980375      0.100132        9.923162       
100             430.676000      3754.189713     374.546727      0.100126        10.023288      
101             430.892000      3797.333206     375.104012      0.100126        10.123414      
102             431.093000      3840.497685     375.652361      0.100128        10.223542      
103             431.248000      3883.678548     376.191586      0.100130        10.323672      
104             431.370000      3926.869038     376.721593      0.100124        10.423796      
105             431.523000      3970.075278     377.242976      0.100125        10.523921      
106             431.725000      4013.301744     377.756435      0.100125        10.624046      
107             431.602000      4056.515462     378.259153      0.100124        10.724170      
108             431.537000      4099.722673     378.751970      0.100124        10.824294      
109             431.711000      4142.947737     379.237352      0.100125        10.924419      
110             431.769000      4186.178176     379.714440      0.100124        11.024543      
111             431.782000      4229.410349     380.183062      0.100125        11.124668      
112             431.859000      4272.650231     380.644011      0.100125        11.224793      
113             431.902000      4315.895715     381.097203      0.100128        11.324921      
114             431.850000      4359.137287     381.542008      0.100131        11.425052      
115             431.929000      4402.387634     381.979780      0.100133        11.525185      
116             432.052000      4445.667146     382.411237      0.100172        11.625357      
117             432.158000      4488.942152     382.836079      0.100137        11.725494      
118             431.936000      4532.193200     383.251831      0.100133        11.825627      
119             431.907000      4575.461211     383.660543      0.100179        11.925806      
120             431.902000      4618.711013     384.062242      0.100138        12.025944      
121             431.828000      4661.952974     384.456691      0.100137        12.126081      
122             431.870000      4705.198276     384.845015      0.100135        12.226216      
123             432.031000      4748.460565     385.228345      0.100137        12.326353      
124             431.923000      4791.712470     385.604630      0.100138        12.426491      
125             431.858000      4834.957003     385.974373      0.100136        12.526627      
126             431.899000      4878.204777     386.338569      0.100134        12.626761      
127             431.839000      4921.440066     386.696509      0.100119        12.726880      
128             431.839000      4964.680105     387.048900      0.100130        12.827010      
129             431.878000      5007.956008     387.396388      0.100204        12.927214      
130             432.141000      5051.226719     387.740305      0.100131        13.027345      
131             432.141000      5094.498293     388.078982      0.100133        13.127478      
132             432.293000      5137.787682     388.413702      0.100139        13.227617      
133             432.242000      5181.071964     388.743008      0.100139        13.327756      
134             432.449000      5224.374812     389.068931      0.100134        13.427890      
135             432.746000      5267.695716     389.392141      0.100107        13.527997      
136             432.785000      5311.063369     389.711202      0.100206        13.628203      
137             432.988000      5354.416293     390.026833      0.100125        13.728328      
138             433.110000      5397.793126     390.338860      0.100152        13.828480      
139             433.293000      5441.178754     390.647649      0.100130        13.928610      
140             433.477000      5484.582372     390.953340      0.100129        14.028739      
141             433.805000      5528.014929     391.256996      0.100120        14.128859      
142             433.943000      5571.469547     391.557406      0.100139        14.228998      
143             433.797000      5614.958564     391.852928      0.100252        14.329250      
144             433.854000      5658.402100     392.144398      0.100134        14.429384      
145             433.835000      5701.843300     392.431717      0.100133        14.529517      
146             433.613000      5745.263138     392.713589      0.100135        14.629652      
147             433.647000      5788.669034     392.991749      0.100095        14.729747      
148             433.697000      5832.106391     393.266658      0.100156        14.829903      
149             433.498000      5875.498241     393.536386      0.100097        14.930000      
150             433.355000      5918.898310     393.801706      0.100149        15.030149      
151             433.422000      5962.298156     394.063915      0.100133        15.130282      
152             433.394000      6005.701264     394.322528      0.100147        15.230429      
153             433.257000      6049.083721     394.576827      0.100131        15.330560      
154             433.412000      6092.482565     394.828837      0.100133        15.430693      
155             433.676000      6135.915650     395.079343      0.100151        15.530844      
156             433.603000      6179.333619     395.326128      0.100133        15.630977      
157             433.567000      6222.745382     395.569528      0.100127        15.731104      
158             433.380000      6266.137988     395.808664      0.100126        15.831230      
159             433.419000      6309.542300     396.045081      0.100144        15.931374      
160             433.480000      6352.949687     396.278909      0.100137        16.031511      
161             433.475000      6396.356573     396.509803      0.100137        16.131648      
162             433.239000      6439.729429     396.736339      0.100113        16.231761      
163             433.273000      6483.115221     396.960354      0.100135        16.331896      
164             433.212000      6526.490573     397.181246      0.100125        16.432021      
165             433.071000      6569.849641     397.398597      0.100120        16.532141      
166             433.012000      6613.195008     397.612938      0.100102        16.632243      
167             432.908000      6656.581048     397.824340      0.100220        16.732463      
168             433.090000      6699.948082     398.034129      0.100134        16.832597      
169             433.042000      6743.306845     398.241136      0.100126        16.932723      
170             432.968000      6786.697600     398.445459      0.100217        17.032940      
171             433.279000      6830.113455     398.649183      0.100203        17.133143      
172             433.304000      6873.504951     398.850559      0.100141        17.233284      
173             433.379000      6916.902657     399.050035      0.100138        17.333422      
174             433.764000      6960.338917     399.249431      0.100138        17.433560      
175             433.764000      7003.775176     399.446550      0.100138        17.533698      
176             433.855000      7047.208400     399.641892      0.100110        17.633808      
177             434.081000      7090.660342     399.836288      0.100101        17.733909      
178             434.090000      7134.138797     400.028664      0.100160        17.834069      
179             434.090000      7177.603360     400.218831      0.100128        17.934197      
180             434.123000      7221.073833     400.407081      0.100134        18.034331      
181             434.525000      7264.584994     400.595473      0.100135        18.134466      
182             434.525000      7308.097458     400.781802      0.100138        18.234604      
183             434.573000      7351.636892     400.966452      0.100189        18.334793      
184             434.454000      7395.141378     401.148351      0.100136        18.434929      
185             434.333000      7438.630707     401.327620      0.100129        18.535058      
186             434.315000      7482.116497     401.504858      0.100125        18.635183      
187             434.251000      7525.604129     401.679892      0.100144        18.735327      
188             434.330000      7569.091854     401.853454      0.100126        18.835453      
189             434.278000      7612.576545     402.024915      0.100131        18.935584      
190             434.302000      7656.063638     402.194698      0.100131        19.035715      
191             434.309000      7699.553604     402.362749      0.100136        19.135851      
192             434.305000      7743.043170     402.529029      0.100136        19.235987      
193             434.154000      7786.516746     402.692802      0.100134        19.336121      
194             434.102000      7829.986418     402.854625      0.100137        19.436258      
195             434.261000      7873.472012     403.015603      0.100137        19.536395      
196             434.220000      7916.988672     403.174859      0.100218        19.636613      
197             433.856000      7960.473191     403.330664      0.100228        19.736841      
198             434.079000      8003.939692     403.485879      0.100135        19.836976      
199             433.976000      8047.394577     403.639012      0.100132        19.937108      
200             433.745000      8090.834572     403.789489      0.100151        20.037259      
201             433.867000      8134.281146     403.939057      0.100138        20.137397      
202             433.708000      8177.709629     404.086350      0.100133        20.237530      
203             433.584000      8221.122227     404.231571      0.100125        20.337655      
204             433.492000      8264.525614     404.374918      0.100125        20.437780      
205             433.635000      8307.943318     404.517565      0.100125        20.537905      
206             433.438000      8351.369471     404.657962      0.100190        20.638095      
207             433.485000      8394.765221     404.797118      0.100109        20.738204      
