#timestep       power           acc-energy      avg-power       dt              acc-time       
1               137.867000      13.803796       137.867000      0.100124        0.100124       
2               137.800000      28.927759       137.831963      0.109753        0.209877       
3               137.860000      42.731267       137.841019      0.100127        0.310004       
4               137.854000      56.534588       137.844188      0.100130        0.410134       
5               137.844000      70.336356       137.844151      0.100126        0.510260       
6               137.805000      84.135460       137.837728      0.100135        0.610395       
7               137.741000      97.927604       137.824097      0.100131        0.710526       
8               137.788000      111.724179      137.819638      0.100129        0.810655       
9               137.775000      125.518074      137.814731      0.100119        0.910774       
10              137.684000      139.316489      137.801772      0.100218        1.010992       
11              134.439000      152.779211      137.498705      0.100140        1.111132       
12              134.164000      166.213320      137.223033      0.100132        1.211264       
13              147.191000      180.951702      137.984133      0.100131        1.311395       
14              176.197000      198.594308      140.694857      0.100130        1.411525       
15              202.835000      218.904177      144.810937      0.100130        1.511655       
16              236.257000      242.560354      150.491849      0.100129        1.611784       
17              266.664000      269.259020      157.286193      0.100121        1.711905       
18              288.952000      298.188316      164.561000      0.100118        1.812023       
19              317.319000      329.959247      172.559651      0.100123        1.912146       
20              341.638000      364.173951      180.974435      0.100149        2.012295       
21              375.152000      401.739796      190.178986      0.100135        2.112430       
22              408.609000      442.656267      200.064661      0.100136        2.212566       
23              418.199000      484.533042      209.509501      0.100136        2.312702       
24              418.266000      526.414435      218.172760      0.100131        2.412833       
25              418.438000      568.301752      226.150418      0.100104        2.512937       
26              418.668000      610.250193      233.532096      0.100195        2.613132       
27              418.753000      652.181187      240.367670      0.100133        2.713265       
28              418.431000      694.078683      246.705025      0.100130        2.813395       
29              418.842000      736.018170      252.621023      0.100132        2.913527       
30              418.654000      777.937995      258.137537      0.100130        3.013657       
31              418.977000      819.891419      263.309799      0.100133        3.113790       
32              418.985000      861.845225      268.159969      0.100132        3.213922       
33              419.304000      903.830973      272.726689      0.100132        3.314054       
34              419.116000      945.797477      277.019985      0.100131        3.414185       
35              419.531000      987.854621      281.085063      0.100248        3.514433       
36              419.351000      1029.843398     284.915208      0.100128        3.614561       
37              419.602000      1071.848076     288.544862      0.100106        3.714667       
38              420.162000      1113.915536     291.999252      0.100122        3.814789       
39              420.247000      1156.014199     295.280852      0.100176        3.914965       
40              420.421000      1198.108852     298.401493      0.100125        4.015090       
41              420.421000      1240.203084     301.370253      0.100124        4.115214       
42              420.487000      1282.296776     304.199081      0.100107        4.215321       
43              420.617000      1324.431663     306.901448      0.100174        4.315495       
44              420.711000      1366.557035     309.482201      0.100129        4.415624       
45              420.705000      1408.682647     311.948422      0.100131        4.515755       
46              420.740000      1450.811344     314.308382      0.100130        4.615885       
47              420.785000      1492.950437     316.569393      0.100144        4.716029       
48              421.241000      1535.148675     318.746539      0.100176        4.816205       
49              421.334000      1577.356651     320.836878      0.100177        4.916382       
50              421.381000      1619.552480     322.843884      0.100137        5.016519       
51              421.421000      1661.750629     324.773041      0.100133        5.116652       
52              418.673000      1703.675288     326.575464      0.100137        5.216789       
53              418.571000      1745.589313     328.308056      0.100136        5.316925       
54              418.618000      1787.526046     329.978167      0.100179        5.417104       
55              418.684000      1829.449293     331.588068      0.100131        5.517235       
56              418.583000      1871.410146     333.140509      0.100245        5.617480       
57              418.511000      1913.316071     334.635580      0.100131        5.717611       
58              418.481000      1955.216481     336.078585      0.100125        5.817736       
59              418.471000      1997.117983     337.472660      0.100130        5.917866       
60              418.545000      2039.023964     338.821484      0.100123        6.017989       
61              418.580000      2080.935123     340.126785      0.100127        6.118116       
62              421.376000      2123.128766     341.435148      0.100133        6.218249       
63              421.534000      2165.336544     342.704495      0.100129        6.318378       
64              420.730000      2207.463398     343.921685      0.100128        6.418506       
65              420.808000      2249.608581     345.102970      0.100153        6.518659       
66              420.891000      2291.748609     346.249401      0.100121        6.618780       
67              421.130000      2333.917619     347.365358      0.100133        6.718913       
68              421.200000      2376.089006     348.449452      0.100122        6.819035       
69              420.875000      2418.226169     349.497427      0.100118        6.919153       
70              420.352000      2460.307608     350.507968      0.100110        7.019263       
71              420.373000      2502.394932     351.490471      0.100119        7.119382       
72              420.324000      2544.478612     352.445073      0.100122        7.219504       
73              420.410000      2586.572163     353.374763      0.100125        7.319629       
74              421.194000      2629.120760     354.298002      0.101019        7.420648       
75              421.247000      2671.297694     355.189294      0.100124        7.520772       
76              421.269000      2713.471355     356.057343      0.100111        7.620883       
77              421.314000      2755.650785     356.903491      0.100114        7.720997       
78              421.383000      2797.839229     357.728901      0.100119        7.821116       
79              421.197000      2840.005682     358.531031      0.100111        7.921227       
80              421.351000      2882.191344     359.315131      0.100120        8.021347       
81              421.403000      2924.381370     360.080524      0.100118        8.121465       
82              421.522000      2966.584574     360.828747      0.100121        8.221586       
83              421.536000      3008.780749     361.558990      0.100101        8.321687       
84              421.548000      3050.989086     362.272200      0.100127        8.421814       
85              421.623000      3093.207883     362.969580      0.100134        8.521948       
86              421.623000      3135.457038     363.651245      0.100206        8.622154       
87              421.616000      3177.702961     364.317128      0.100200        8.722354       
88              421.621000      3219.902585     364.967230      0.100089        8.822443       
89              421.569000      3262.104171     365.602270      0.100106        8.922549       
90              421.569000      3304.307022     366.223237      0.100109        9.022658       
91              421.548000      3346.506928     366.830334      0.100107        9.122765       
92              421.527000      3388.713584     367.424146      0.100128        9.222893       
93              421.572000      3430.921372     368.005641      0.100120        9.323013       
94              421.525000      3473.165765     368.574830      0.100218        9.423231       
95              421.547000      3515.365149     369.131655      0.100106        9.523337       
96              421.546000      3557.564011     369.676880      0.100105        9.623442       
97              421.567000      3599.765819     370.211105      0.100107        9.723549       
98              421.596000      3641.972637     370.734763      0.100112        9.823661       
99              422.700000      3684.287021     371.258958      0.100105        9.923766       
100             422.669000      3726.599146     371.772382      0.100107        10.023873      
101             422.545000      3768.897591     372.274413      0.100104        10.123977      
102             422.360000      3811.177094     372.764796      0.100103        10.224080      
103             422.289000      3853.449068     373.244976      0.100102        10.324182      
104             422.158000      3895.708350     373.714682      0.100103        10.424285      
105             422.124000      3937.965495     374.175142      0.100106        10.524391      
106             421.931000      3980.202054     374.625093      0.100103        10.624494      
107             421.837000      4022.428360     375.065759      0.100101        10.724595      
108             421.675000      4064.638870     375.496780      0.100102        10.824697      
109             421.623000      4106.844598     375.919431      0.100103        10.924800      
110             421.475000      4149.035088     376.333058      0.100102        11.024902      
111             421.667000      4191.243955     376.740962      0.100100        11.125002      
112             421.638000      4233.450340     377.141336      0.100101        11.225103      
113             421.626000      4275.658476     377.534553      0.100108        11.325211      
114             421.631000      4317.873858     377.920985      0.100124        11.425335      
115             421.645000      4360.081787     378.300745      0.100103        11.525438      
116             421.706000      4402.292449     378.674462      0.100095        11.625533      
117             421.714000      4444.514455     379.041957      0.100120        11.725653      
118             421.748000      4486.756735     379.403660      0.100160        11.825813      
119             421.747000      4528.990901     379.759213      0.100141        11.925954      
120             421.774000      4571.221023     380.109013      0.100125        12.026079      
121             421.787000      4613.451603     380.453138      0.100123        12.126202      
122             421.801000      4655.674726     380.791671      0.100102        12.226304      
123             421.854000      4697.916655     381.125241      0.100134        12.326438      
124             421.856000      4740.155409     381.453426      0.100126        12.426564      
125             421.870000      4782.408220     381.776572      0.100156        12.526720      
126             421.849000      4824.645008     382.094321      0.100123        12.626843      
127             421.861000      4866.924761     382.407473      0.100222        12.727065      
128             421.901000      4909.187850     382.715893      0.100173        12.827238      
129             421.807000      4951.455020     383.018902      0.100205        12.927443      
130             421.815000      4993.690091     383.317080      0.100127        13.027570      
131             421.815000      5035.933176     383.610765      0.100146        13.127716      
132             421.802000      5078.166945     383.899850      0.100127        13.227843      
133             421.838000      5120.402631     384.184851      0.100123        13.327966      
134             421.873000      5162.644352     384.465879      0.100129        13.428095      
135             421.873000      5204.883121     384.742729      0.100122        13.528217      
136             421.853000      5247.127480     385.015412      0.100140        13.628357      
137             421.866000      5289.366814     385.284172      0.100125        13.728482      
138             421.830000      5331.606761     385.548805      0.100135        13.828617      
139             421.867000      5373.850835     385.809902      0.100136        13.928753      
140             422.006000      5416.113469     386.068293      0.100147        14.028900      
141             421.966000      5458.366613     386.322704      0.100134        14.129034      
142             421.975000      5500.622767     386.573610      0.100139        14.229173      
143             422.035000      5542.879022     386.821394      0.100125        14.329298      
144             421.828000      5585.121721     387.064344      0.100142        14.429440      
145             421.836000      5627.361004     387.303976      0.100132        14.529572      
146             421.815000      5669.584685     387.540109      0.100100        14.629672      
147             421.818000      5711.813729     387.773081      0.100112        14.729784      
148             421.825000      5754.051066     388.002996      0.100130        14.829914      
149             421.902000      5796.301598     388.230373      0.100143        14.930057      
150             421.874000      5838.541732     388.454493      0.100125        15.030182      
151             421.888000      5880.784112     388.675744      0.100127        15.130309      
152             421.867000      5923.025233     388.893953      0.100129        15.230438      
153             421.943000      5965.274807     389.109811      0.100131        15.330569      
154             422.080000      6007.542743     389.323781      0.100142        15.430711      
155             422.190000      6049.839848     389.535790      0.100185        15.530896      
156             422.144000      6092.106594     389.744661      0.100124        15.631020      
157             422.246000      6134.384397     389.951527      0.100126        15.731146      
158             422.290000      6176.713057     390.156277      0.100236        15.831382      
159             422.224000      6218.987813     390.357811      0.100124        15.931506      
160             422.194000      6261.262098     390.556653      0.100130        16.031636      
161             422.218000      6303.543431     390.753197      0.100141        16.131777      
162             422.148000      6345.805512     390.946828      0.100112        16.231889      
163             422.183000      6388.064763     391.138271      0.100097        16.331986      
164             422.084000      6430.315372     391.326784      0.100100        16.432086      
165             422.168000      6472.622516     391.513735      0.100214        16.532300      
166             422.112000      6514.894078     391.697965      0.100143        16.632443      
167             422.082000      6557.144064     391.879731      0.100099        16.732542      
168             422.046000      6599.395089     392.059141      0.100110        16.832652      
169             422.130000      6641.658322     392.236942      0.100119        16.932771      
170             422.208000      6684.034073     392.413545      0.100367        17.033138      
171             422.252000      6726.389326     392.588235      0.100308        17.133446      
172             422.302000      6768.672314     392.760869      0.100125        17.233571      
173             422.312000      6810.955036     392.931560      0.100122        17.333693      
174             422.367000      6853.254246     393.100651      0.100148        17.433841      
175             422.408000      6895.550382     393.268016      0.100131        17.533972      
176             422.476000      6937.854594     393.433871      0.100134        17.634106      
177             422.536000      6980.166081     393.598198      0.100137        17.734243      
178             422.531000      7022.476223     393.760647      0.100135        17.834378      
179             422.566000      7064.794940     393.921497      0.100147        17.934525      
180             422.574000      7107.105162     394.080571      0.100125        18.034650      
181             422.617000      7149.445468     394.238220      0.100186        18.134836      
182             422.654000      7191.765813     394.394254      0.100130        18.234966      
183             422.589000      7234.078805     394.548226      0.100128        18.335094      
184             422.654000      7276.397459     394.700875      0.100126        18.435220      
185             422.619000      7318.712187     394.851684      0.100125        18.535345      
186             422.503000      7361.018257     395.000260      0.100132        18.635477      
187             422.476000      7403.320356     395.147099      0.100129        18.735606      
188             422.500000      7445.617676     395.292480      0.100112        18.835718      
189             422.511000      7487.916943     395.436384      0.100114        18.935832      
190             422.511000      7530.222124     395.578795      0.100128        19.035960      
191             422.503000      7572.535800     395.719705      0.100150        19.136110      
192             422.433000      7614.835706     395.858760      0.100134        19.236244      
193             422.455000      7657.136547     395.996486      0.100131        19.336375      
194             422.447000      7699.434898     396.132745      0.100127        19.436502      
195             422.462000      7741.733061     396.267680      0.100123        19.536625      
196             422.475000      7784.031258     396.401301      0.100120        19.636745      
197             422.644000      7826.346375     396.534423      0.100120        19.736865      
198             422.619000      7868.660257     396.666079      0.100123        19.836988      
199             422.671000      7911.065571     396.796939      0.100327        19.937315      
200             422.686000      7953.377707     396.926276      0.100103        20.037418      
201             422.713000      7995.688742     397.054450      0.100094        20.137512      
202             422.662000      8038.013692     397.181160      0.100139        20.237651      
203             422.778000      8080.341803     397.307168      0.100119        20.337770      
204             422.805000      8122.681496     397.432100      0.100140        20.437910      
205             422.856000      8165.025450     397.556060      0.100138        20.538048      
206             422.871000      8207.376403     397.678906      0.100151        20.638199      
207             422.845000      8249.713759     397.800409      0.100125        20.738324      
