#timestep       power           acc-energy      avg-power       dt              acc-time       
1               136.613000      13.678786       136.613000      0.100128        0.100128       
2               136.610000      32.121820       136.611278      0.135005        0.235133       
3               136.643000      45.803746       136.620752      0.100129        0.335262       
4               136.562000      59.476880       136.607241      0.100124        0.435386       
5               136.590000      73.155959       136.604017      0.100147        0.535533       
6               136.528000      86.830330       136.592040      0.100158        0.635691       
7               136.483000      100.496783      136.577201      0.100133        0.735824       
8               136.455000      114.161386      136.562563      0.100140        0.835964       
9               136.483000      127.836300      136.554047      0.100195        0.936159       
10              136.396000      141.493359      136.538777      0.100128        1.036287       
11              133.204000      154.831209      136.244946      0.100131        1.136418       
12              133.184000      168.166523      135.997091      0.100127        1.236545       
13              140.345000      182.218005      136.322765      0.100121        1.336666       
14              160.997000      198.337830      138.042227      0.100125        1.436791       
15              177.913000      216.152792      140.639870      0.100133        1.536924       
16              194.464000      235.625056      143.932102      0.100133        1.637057       
17              214.556000      257.108977      148.002881      0.100132        1.737189       
18              226.141000      279.758355      152.262289      0.100156        1.837345       
19              244.679000      304.258797      157.038582      0.100133        1.937478       
20              261.305000      330.425096      162.162674      0.100137        2.037615       
21              277.960000      358.265292      167.588011      0.100159        2.137774       
22              294.627000      387.786033      173.275719      0.100197        2.237971       
23              300.555000      417.889322      178.728010      0.100159        2.338130       
24              299.458000      447.876147      183.686261      0.100137        2.438267       
25              299.310000      477.847554      188.247391      0.100135        2.538402       
26              299.431000      507.830778      192.466875      0.100134        2.638536       
27              299.314000      537.802885      196.373602      0.100136        2.738672       
28              299.135000      567.756469      199.998333      0.100134        2.838806       
29              299.180000      597.715456      203.377696      0.100137        2.938943       
30              299.219000      627.677751      206.535584      0.100135        3.039078       
31              299.213000      657.628972      209.490820      0.100100        3.139178       
32              299.237000      687.592471      212.265037      0.100133        3.239311       
33              299.300000      717.561978      214.874750      0.100132        3.339443       
34              299.791000      747.580051      217.346761      0.100130        3.439573       
35              299.731000      777.591817      219.677198      0.100129        3.539702       
36              299.731000      807.603282      221.879396      0.100128        3.639830       
37              299.795000      837.622055      223.965452      0.100131        3.739961       
38              299.795000      867.641128      225.942738      0.100132        3.840093       
39              299.769000      897.657598      227.818868      0.100132        3.940225       
40              299.769000      927.674367      229.602022      0.100133        4.040358       
41              299.814000      957.696542      231.300067      0.100136        4.140494       
42              299.827000      987.720918      232.918274      0.100139        4.240633       
43              299.827000      1017.763583     234.462736      0.100200        4.340833       
44              299.833000      1047.786761     235.936677      0.100133        4.440966       
45              299.933000      1077.816953     237.347683      0.100123        4.541089       
46              299.953000      1107.842248     238.697939      0.100100        4.641189       
47              299.947000      1137.917334     239.993178      0.100268        4.741457       
48              299.987000      1168.015329     241.236363      0.100331        4.841788       
49              299.994000      1198.055229     242.426931      0.100135        4.941923       
50              299.625000      1228.049489     243.562560      0.100106        5.042029       
51              299.600000      1258.047238     244.653698      0.100126        5.142155       
52              299.632000      1288.041001     245.703521      0.100102        5.242257       
53              299.614000      1318.042549     246.713981      0.100134        5.342391       
54              299.596000      1348.036902     247.686756      0.100116        5.442507       
55              299.609000      1378.028962     248.624513      0.100104        5.542611       
56              299.620000      1408.017927     249.529069      0.100090        5.642701       
57              299.590000      1438.000595     250.401477      0.100079        5.742780       
58              299.616000      1467.986164     251.244453      0.100080        5.842860       
59              299.654000      1497.990519     252.060077      0.100130        5.942990       
60              300.056000      1528.035727     252.855350      0.100132        6.043122       
61              300.091000      1558.082038     253.625207      0.100124        6.143246       
62              300.115000      1588.130752     254.370757      0.100124        6.243370       
63              300.159000      1618.184772     255.093487      0.100127        6.343497       
64              300.184000      1648.240395     255.794125      0.100124        6.443621       
65              300.184000      1678.297519     256.473355      0.100129        6.543750       
66              300.222000      1708.366554     257.132860      0.100156        6.643906       
67              300.261000      1738.429886     257.773154      0.100124        6.744030       
68              300.221000      1768.493416     258.394215      0.100138        6.844168       
69              300.219000      1798.551943     258.997240      0.100122        6.944290       
70              300.231000      1828.611671     259.583294      0.100122        7.044412       
71              300.241000      1858.673602     260.153085      0.100126        7.144538       
72              300.227000      1888.743137     260.707096      0.100156        7.244694       
73              300.245000      1918.808170     261.246133      0.100135        7.344829       
74              300.274000      1948.876408     261.771064      0.100136        7.444965       
75              300.274000      1978.936237     262.281921      0.100108        7.545073       
76              300.220000      2008.996065     262.778780      0.100126        7.645199       
77              300.261000      2039.059697     263.263318      0.100125        7.745324       
78              300.261000      2069.126032     263.735531      0.100134        7.845458       
79              300.314000      2099.197374     264.196505      0.100133        7.945591       
80              300.294000      2129.274521     264.645872      0.100159        8.045750       
81              300.326000      2159.348266     265.084486      0.100137        8.145887       
82              300.327000      2189.436226     265.512658      0.100184        8.246071       
83              300.356000      2219.512374     265.930696      0.100135        8.346206       
84              300.319000      2249.583315     266.338364      0.100130        8.446336       
85              300.328000      2279.654257     266.736574      0.100127        8.546463       
86              300.392000      2309.756239     267.126617      0.100209        8.646672       
87              300.386000      2339.833589     267.507354      0.100129        8.746801       
88              300.294000      2369.916741     267.878614      0.100179        8.846980       
89              300.289000      2399.981676     268.241293      0.100120        8.947100       
90              300.292000      2430.052016     268.596038      0.100137        9.047237       
91              300.235000      2460.113346     268.942355      0.100126        9.147363       
92              300.235000      2490.174075     269.281165      0.100124        9.247487       
93              300.240000      2520.232602     269.612742      0.100115        9.347602       
94              300.276000      2550.294434     269.937669      0.100114        9.447716       
95              300.287000      2580.354964     270.255872      0.100106        9.547822       
96              300.270000      2610.415294     270.567312      0.100111        9.647933       
97              300.320000      2640.486936     270.872931      0.100132        9.748065       
98              300.308000      2670.556176     271.172201      0.100128        9.848193       
99              300.277000      2700.620209     271.465116      0.100121        9.948314       
100             300.352000      2730.697158     271.752991      0.100139        10.048453      
101             300.368000      2760.773907     272.035327      0.100133        10.148586      
102             300.366000      2790.856764     272.312183      0.100154        10.248740      
103             300.373000      2820.935815     272.583708      0.100139        10.348879      
104             300.382000      2851.028084     272.850224      0.100180        10.449059      
105             300.379000      2881.105334     273.111522      0.100131        10.549190      
106             300.409000      2911.186489     273.368196      0.100134        10.649324      
107             300.430000      2941.270948     273.620294      0.100138        10.749462      
108             300.488000      2971.361215     273.868273      0.100138        10.849600      
109             300.524000      3001.454487     274.112041      0.100136        10.949736      
110             300.514000      3031.545554     274.351291      0.100132        11.049868      
111             300.559000      3061.641729     274.586653      0.100134        11.150002      
112             300.559000      3091.742413     274.817859      0.100149        11.250151      
113             300.559000      3121.899000     275.045403      0.100335        11.350486      
114             300.584000      3151.994372     275.268710      0.100123        11.450609      
115             300.584000      3182.089744     275.488146      0.100123        11.550732      
116             300.570000      3212.180708     275.703669      0.100113        11.650845      
117             300.570000      3242.277684     275.915561      0.100133        11.750978      
118             300.515000      3272.368251     276.123401      0.100130        11.851108      
119             300.529000      3302.461422     276.327885      0.100134        11.951242      
120             300.524000      3332.556496     276.528944      0.100142        12.051384      
121             300.516000      3362.646863     276.726599      0.100129        12.151513      
122             300.548000      3392.740433     276.921284      0.100129        12.251642      
123             300.571000      3422.852237     277.113100      0.100182        12.351824      
124             300.599000      3452.954522     277.301978      0.100141        12.451965      
125             300.619000      3483.056705     277.487989      0.100134        12.552099      
126             300.632000      3513.160490     277.671160      0.100135        12.652234      
127             300.681000      3543.267378     277.851829      0.100129        12.752363      
128             300.694000      3573.374966     278.029780      0.100127        12.852490      
129             300.705000      3603.508614     278.205209      0.100210        12.952700      
130             300.719000      3633.617502     278.377904      0.100123        13.052823      
131             300.725000      3663.727292     278.548016      0.100124        13.152947      
132             300.671000      3693.831676     278.715150      0.100124        13.253071      
133             300.677000      3723.936359     278.879821      0.100123        13.353194      
134             300.682000      3754.034928     279.042043      0.100101        13.453295      
135             300.676000      3784.174389     279.202043      0.100239        13.553534      
136             300.663000      3814.277069     279.359415      0.100121        13.653655      
137             300.693000      3844.411921     279.514863      0.100218        13.753873      
138             300.697000      3874.518907     279.667948      0.100124        13.853997      
139             300.699000      3904.626394     279.818852      0.100125        13.954122      
140             300.697000      3934.734884     279.967597      0.100129        14.054251      
141             300.732000      3964.839661     280.114451      0.100105        14.154356      
142             300.765000      3994.951952     280.259494      0.100119        14.254475      
143             300.778000      4025.073666     280.402643      0.100146        14.354621      
144             300.805000      4055.192669     280.543970      0.100128        14.454749      
145             300.854000      4085.320790     280.683709      0.100142        14.554891      
146             300.854000      4115.444399     280.821518      0.100127        14.655018      
147             300.832000      4145.566105     280.957308      0.100128        14.755146      
148             300.855000      4175.689513     281.091421      0.100126        14.855272      
149             300.863000      4205.805899     281.223757      0.100100        14.955372      
150             300.841000      4235.940540     281.354275      0.100168        15.055540      
151             300.834000      4266.063951     281.482977      0.100133        15.155673      
152             300.862000      4296.188962     281.610168      0.100129        15.255802      
153             300.843000      4326.317486     281.735599      0.100147        15.355949      
154             300.842000      4356.444105     281.859390      0.100141        15.456090      
155             300.827000      4386.565311     281.981476      0.100128        15.556218      
156             300.856000      4416.693632     282.102202      0.100142        15.656360      
157             300.856000      4446.818043     282.221378      0.100129        15.756489      
158             300.843000      4476.950478     282.339004      0.100160        15.856649      
159             300.825000      4507.072687     282.455007      0.100132        15.956781      
160             300.826000      4537.196500     282.569575      0.100137        16.056918      
161             300.826000      4567.319711     282.682721      0.100135        16.157053      
162             300.767000      4597.435812     282.794106      0.100131        16.257184      
163             300.767000      4627.545897     282.904105      0.100111        16.357295      
164             300.774000      4657.649164     283.012781      0.100086        16.457381      
165             300.774000      4687.882064     283.120603      0.100517        16.557898      
166             300.767000      4717.999367     283.226679      0.100135        16.658033      
167             300.774000      4748.109251     283.331501      0.100108        16.758141      
168             300.794000      4778.232868     283.435238      0.100147        16.858288      
169             300.763000      4808.349771     283.537554      0.100135        16.958423      
170             300.802000      4838.470278     283.638896      0.100134        17.058557      
171             300.848000      4868.615248     283.739390      0.100200        17.158757      
172             300.888000      4898.743163     283.838880      0.100130        17.258887      
173             300.889000      4928.876294     283.937245      0.100147        17.359034      
174             300.906000      4959.005410     284.034561      0.100128        17.459162      
175             300.952000      4989.139733     284.131031      0.100130        17.559292      
176             300.967000      5019.328529     284.226658      0.100306        17.659598      
177             300.974000      5049.462648     284.321073      0.100122        17.759720      
178             300.989000      5079.597366     284.414510      0.100119        17.859839      
179             301.005000      5109.734589     284.506998      0.100122        17.959961      
180             301.006000      5139.871309     284.598464      0.100120        18.060081      
181             300.991000      5170.006528     284.688838      0.100120        18.160201      
182             300.999000      5200.141946     284.778264      0.100118        18.260319      
183             300.993000      5230.276161     284.866680      0.100116        18.360435      
184             300.961000      5260.410182     284.953972      0.100126        18.460561      
185             300.960000      5290.542598     285.040313      0.100121        18.560682      
186             300.951000      5320.678026     285.125689      0.100134        18.660816      
187             300.943000      5350.807837     285.210099      0.100118        18.760934      
188             300.934000      5380.937650     285.293567      0.100121        18.861055      
189             300.943000      5411.068665     285.376201      0.100122        18.961177      
190             300.956000      5441.199176     285.458031      0.100116        19.061293      
191             300.971000      5471.332092     285.539087      0.100119        19.161412      
192             300.991000      5501.465806     285.619401      0.100115        19.261527      
193             301.020000      5531.602423     285.699034      0.100115        19.361642      
194             301.044000      5561.739938     285.777968      0.100110        19.461752      
195             300.995000      5591.876159     285.855852      0.100122        19.561874      
196             301.016000      5622.023815     285.933074      0.100153        19.662027      
197             301.052000      5652.166646     286.009674      0.100125        19.762152      
198             301.057000      5682.318107     286.085547      0.100152        19.862304      
199             301.056000      5712.462844     286.160638      0.100130        19.962434      
200             301.093000      5742.635675     286.235223      0.100211        20.062645      
201             301.092000      5772.845439     286.309153      0.100334        20.162979      
202             301.078000      5803.167607     286.382555      0.100712        20.263691      
203             301.072000      5833.371150     286.454920      0.100320        20.364011      
204             301.097000      5863.616043     286.526790      0.100449        20.464460      
205             301.136000      5893.788966     286.597971      0.100197        20.564657      
206             300.993000      5923.962311     286.667801      0.100246        20.664903      
207             301.002000      5954.168162     286.737073      0.100351        20.765254      
