#timestep       power           acc-energy      avg-power       dt              acc-time       
1               136.435000      13.660554       136.435000      0.100125        0.100125       
2               136.422000      28.891934       136.428146      0.111649        0.211774       
3               136.344000      42.550194       136.401125      0.100175        0.311949       
4               136.296000      56.197240       136.375581      0.100128        0.412077       
5               136.270000      69.843591       136.354939      0.100142        0.512219       
6               136.305000      83.493037       136.346773      0.100139        0.612358       
7               136.293000      97.140737       136.339215      0.100135        0.712493       
8               136.221000      110.778230      136.324651      0.100113        0.812606       
9               136.294000      124.427529      136.321288      0.100146        0.912752       
10              136.309000      138.076421      136.320073      0.100132        1.012884       
11              132.769000      151.372440      136.000568      0.100144        1.113028       
12              132.581000      164.646715      135.718349      0.100122        1.213150       
13              142.265000      178.891283      136.217479      0.100127        1.313277       
14              173.117000      196.243838      138.834123      0.100236        1.413513       
15              204.222000      216.692587      143.159640      0.100130        1.513643       
16              247.838000      241.520254      149.657492      0.100177        1.613820       
17              270.081000      268.593984      156.700182      0.100243        1.714063       
18              304.048000      299.040743      164.833303      0.100138        1.814201       
19              331.396000      332.209174      173.541899      0.100087        1.914288       
20              372.852000      369.552539      183.451384      0.100156        2.014444       
21              404.197000      410.045399      193.909274      0.100181        2.114625       
22              435.536000      453.676089      204.838215      0.100177        2.214802       
23              444.857000      498.239639      215.224444      0.100175        2.314977       
24              445.132000      542.832072      224.760759      0.100178        2.415155       
25              445.409000      587.461163      233.550187      0.100198        2.515353       
26              445.608000      632.074545      241.667579      0.100118        2.615471       
27              445.766000      676.714889      249.194064      0.100143        2.715614       
28              445.946000      721.372814      256.191521      0.100142        2.815756       
29              446.008000      766.036947      262.710474      0.100142        2.915898       
30              443.920000      810.491540      268.727142      0.100141        3.016039       
31              443.972000      854.950008      274.358616      0.100138        3.116177       
32              444.016000      899.405334      279.639926      0.100121        3.216298       
33              444.016000      943.858883      284.602163      0.100117        3.316415       
34              444.299000      988.346987      289.282505      0.100131        3.416546       
35              444.414000      1032.832828     293.698265      0.100100        3.516646       
36              444.414000      1077.332002     297.870811      0.100130        3.616776       
37              444.485000      1121.843174     301.820884      0.100141        3.716917       
38              444.586000      1166.355569     305.565616      0.100121        3.817038       
39              444.640000      1210.882263     309.120993      0.100141        3.917179       
40              444.794000      1255.414594     312.502233      0.100119        4.017298       
41              447.177000      1300.201159     315.778098      0.100154        4.117452       
42              447.304000      1344.995971     318.901092      0.100144        4.217596       
43              447.385000      1389.835133     321.883453      0.100225        4.317821       
44              447.459000      1434.644572     324.729875      0.100142        4.417963       
45              447.211000      1479.430517     327.444700      0.100145        4.518108       
46              447.013000      1524.192164     330.037238      0.100135        4.618243       
47              447.157000      1568.964653     332.522598      0.100127        4.718370       
48              447.216000      1613.749310     334.906221      0.100141        4.818511       
49              447.275000      1658.540323     337.194009      0.100142        4.918653       
50              447.352000      1703.337258     339.391949      0.100138        5.018791       
51              447.451000      1748.156635     341.506411      0.100166        5.118957       
52              447.494000      1792.970922     343.540119      0.100145        5.219102       
53              447.475000      1837.782410     345.496853      0.100143        5.319245       
54              447.583000      1882.603372     347.383213      0.100140        5.419385       
55              448.056000      1927.470356     349.209652      0.100137        5.519522       
56              448.276000      1972.361611     350.975007      0.100142        5.619664       
57              448.280000      2017.251474     352.678550      0.100138        5.719802       
58              448.303000      2062.142295     354.323817      0.100135        5.819937       
59              448.327000      2107.037312     355.913896      0.100139        5.920076       
60              448.362000      2151.934489     357.451613      0.100136        6.020212       
61              448.369000      2196.833264     358.939156      0.100138        6.120350       
62              448.413000      2241.743171     360.379727      0.100153        6.220503       
63              448.511000      2286.657063     361.776019      0.100140        6.320643       
64              448.508000      2331.572448     363.128764      0.100144        6.420787       
65              448.509000      2376.484345     364.439872      0.100136        6.520923       
66              448.554000      2421.401646     365.712028      0.100138        6.621061       
67              448.567000      2466.323388     366.946555      0.100145        6.721206       
68              448.567000      2511.233916     368.144539      0.100120        6.821326       
69              448.633000      2556.160473     369.309060      0.100141        6.921467       
70              447.501000      2600.970538     370.424144      0.100134        7.021601       
71              447.464000      2645.773766     371.507276      0.100127        7.121728       
72              447.505000      2690.583337     372.560994      0.100132        7.221860       
73              447.505000      2735.394698     373.585932      0.100136        7.321996       
74              447.449000      2780.187475     374.582174      0.100107        7.422103       
75              447.472000      2824.982554     375.552205      0.100107        7.522210       
76              447.510000      2869.789940     376.497433      0.100126        7.622336       
77              447.525000      2914.623442     377.418844      0.100181        7.722517       
78              447.310000      2959.415277     378.313505      0.100136        7.822653       
79              447.377000      3004.205767     379.186243      0.100118        7.922771       
80              448.590000      3049.122187     380.052421      0.100128        8.022899       
81              448.643000      3094.043464     380.897890      0.100127        8.123026       
82              448.703000      3138.984211     381.723745      0.100157        8.223183       
83              448.760000      3183.931115     382.530418      0.100158        8.323341       
84              448.871000      3228.875221     383.318987      0.100127        8.423468       
85              448.911000      3273.824231     384.089514      0.100129        8.523597       
86              448.971000      3318.829084     384.843670      0.100240        8.623837       
87              449.008000      3363.788704     385.580129      0.100131        8.723968       
88              449.324000      3408.779067     386.303445      0.100129        8.824097       
89              449.351000      3453.781569     387.010979      0.100150        8.924247       
90              447.248000      3498.564512     387.679339      0.100130        9.024377       
91              447.241000      3543.751953     388.338802      0.101036        9.125413       
92              446.831000      3588.490460     388.973613      0.100124        9.225537       
93              446.721000      3633.220187     389.593643      0.100129        9.325666       
94              446.670000      3677.947488     390.199993      0.100135        9.425801       
95              446.727000      3722.688537     390.794301      0.100153        9.525954       
96              446.656000      3767.413542     391.375389      0.100133        9.626087       
97              446.624000      3812.135343     391.944182      0.100133        9.726220       
98              446.669000      3856.861650     392.501842      0.100133        9.826353       
99              446.733000      3901.604194     393.049015      0.100155        9.926508       
100             448.935000      3946.556504     393.607120      0.100131        10.026639      
101             448.936000      3991.510262     394.154215      0.100134        10.126773      
102             449.453000      4036.620062     394.696900      0.100366        10.227139      
103             449.450000      4081.622591     395.227759      0.100128        10.327267      
104             449.474000      4126.711126     395.749611      0.100314        10.427581      
105             449.543000      4171.744096     396.261473      0.100175        10.527756      
106             449.570000      4216.802699     396.764193      0.100226        10.627982      
107             449.638000      4261.824053     397.257677      0.100128        10.728110      
108             449.661000      4306.853105     397.742304      0.100140        10.828250      
109             449.640000      4351.879155     398.217848      0.100138        10.928388      
110             449.648000      4396.904658     398.684816      0.100135        11.028523      
111             449.662000      4441.927515     399.143464      0.100126        11.128649      
112             449.661000      4486.948474     399.593907      0.100122        11.228771      
113             449.799000      4531.990446     400.037678      0.100138        11.328909      
114             449.799000      4577.042314     400.473767      0.100160        11.429069      
115             449.746000      4622.077180     400.901708      0.100134        11.529203      
116             449.766000      4667.113599     401.322449      0.100133        11.629336      
117             449.812000      4712.153724     401.736390      0.100131        11.729467      
118             449.828000      4757.196801     402.143471      0.100134        11.829601      
119             449.814000      4802.238476     402.543600      0.100134        11.929735      
120             449.929000      4847.286718     402.937983      0.100123        12.029858      
121             449.840000      4892.326048     403.325120      0.100123        12.129981      
122             449.881000      4937.371733     403.706274      0.100128        12.230109      
123             449.887000      4982.416668     404.081274      0.100125        12.330234      
124             449.926000      5027.482606     404.450687      0.100163        12.430397      
125             449.999000      5072.550906     404.814738      0.100152        12.530549      
126             449.865000      5117.594089     405.171861      0.100126        12.630675      
127             449.558000      5162.606084     405.520948      0.100125        12.730800      
128             449.570000      5207.624675     405.864722      0.100137        12.830937      
129             449.589000      5252.677090     406.203557      0.100208        12.931145      
130             449.621000      5297.700788     406.537192      0.100137        13.031282      
131             449.697000      5342.730747     406.866308      0.100134        13.131416      
132             449.714000      5387.762409     407.190572      0.100134        13.231550      
133             449.716000      5432.814508     407.510122      0.100179        13.331729      
134             449.727000      5477.867709     407.824987      0.100179        13.431908      
135             449.755000      5522.900778     408.135241      0.100128        13.532036      
136             450.002000      5567.978828     408.442889      0.100173        13.632209      
137             450.305000      5613.065166     408.748110      0.100124        13.732333      
138             450.320000      5658.168316     409.049123      0.100158        13.832491      
139             450.353000      5703.261262     409.345957      0.100128        13.932619      
140             450.361000      5748.342848     409.638534      0.100101        14.032720      
141             450.411000      5793.449708     409.927449      0.100146        14.132866      
142             450.454000      5838.552316     410.212547      0.100127        14.232993      
143             450.765000      5883.686063     410.495835      0.100127        14.333120      
144             450.872000      5928.830974     410.775937      0.100128        14.433248      
145             451.294000      5974.018140     411.055087      0.100128        14.533376      
146             451.455000      6019.226844     411.331552      0.100140        14.633516      
147             451.830000      6064.465871     411.606763      0.100124        14.733640      
148             451.970000      6109.707616     411.879137      0.100099        14.833739      
149             452.432000      6154.996964     412.150964      0.100102        14.933841      
150             452.578000      6200.314052     412.420221      0.100131        15.033972      
151             453.015000      6245.672631     412.688793      0.100126        15.134098      
152             453.154000      6291.056005     412.954811      0.100150        15.234248      
153             453.175000      6336.435136     413.217455      0.100136        15.334384      
154             453.253000      6381.815733     413.477162      0.100122        15.434506      
155             453.253000      6427.232590     413.733724      0.100202        15.534708      
156             453.282000      6472.631956     413.987070      0.100157        15.634865      
157             453.289000      6518.019330     414.237167      0.100129        15.734994      
158             453.324000      6563.489087     414.484748      0.100303        15.835297      
159             453.371000      6608.915501     414.729252      0.100197        15.935494      
160             453.388000      6654.315962     414.970660      0.100136        16.035630      
161             453.388000      6699.748160     415.209237      0.100206        16.135836      
162             453.294000      6745.130595     415.444082      0.100117        16.235953      
163             453.262000      6790.538836     415.676000      0.100181        16.336134      
164             453.230000      6835.914864     415.904750      0.100117        16.436251      
165             453.350000      6881.306532     416.131475      0.100125        16.536376      
166             453.391000      6926.705933     416.355735      0.100133        16.636509      
167             453.649000      6972.130715     416.578853      0.100132        16.736641      
168             453.712000      7017.560898     416.799688      0.100130        16.836771      
169             453.715000      7062.997733     417.017959      0.100144        16.936915      
170             453.798000      7108.435165     417.234116      0.100127        17.037042      
171             453.970000      7153.924321     417.448914      0.100203        17.137245      
172             454.138000      7199.395796     417.662031      0.100127        17.237372      
173             454.330000      7244.876501     417.873748      0.100105        17.337477      
174             454.406000      7290.374356     418.083515      0.100126        17.437603      
175             454.413000      7335.874275     418.290933      0.100129        17.537732      
176             454.374000      7381.371653     418.495780      0.100132        17.637864      
177             454.446000      7426.879421     418.698735      0.100139        17.738003      
178             454.403000      7472.368796     418.899109      0.100108        17.838111      
179             454.451000      7517.867067     419.097531      0.100117        17.938228      
180             454.387000      7563.368018     419.293435      0.100137        18.038365      
181             454.391000      7608.871187     419.487205      0.100141        18.138506      
182             453.984000      7654.339955     419.676639      0.100155        18.238661      
183             453.810000      7699.781765     419.863015      0.100134        18.338795      
184             453.920000      7745.235044     420.047966      0.100135        18.438930      
185             454.010000      7790.697336     420.231405      0.100135        18.539065      
186             453.941000      7836.154988     420.412512      0.100140        18.639205      
187             453.909000      7881.610343     420.591515      0.100142        18.739347      
188             453.927000      7927.066592     420.768707      0.100140        18.839487      
189             454.043000      7972.536729     420.944648      0.100145        18.939632      
190             454.096000      8018.012173     421.119017      0.100145        19.039777      
191             454.202000      8063.497323     421.292112      0.100143        19.139920      
192             454.605000      8109.022377     421.465501      0.100142        19.240062      
193             454.678000      8154.555196     421.637475      0.100143        19.340205      
194             454.568000      8200.093364     421.807170      0.100179        19.440384      
195             454.605000      8245.618418     421.975254      0.100142        19.540526      
196             454.633000      8291.144912     422.141761      0.100139        19.640665      
197             454.667000      8336.672083     422.306742      0.100133        19.740798      
198             454.594000      8382.198308     422.469711      0.100147        19.840945      
199             454.593000      8427.719433     422.631021      0.100136        19.941081      
200             454.593000      8473.231465     422.790688      0.100116        20.041197      
201             454.552000      8518.749393     422.948598      0.100138        20.141335      
202             454.512000      8564.262862     423.104746      0.100137        20.241472      
203             454.512000      8609.776330     423.259356      0.100137        20.341609      
204             454.592000      8655.297354     423.412842      0.100136        20.441745      
205             454.612000      8700.819472     423.564927      0.100134        20.541879      
206             454.612000      8746.342500     423.715538      0.100136        20.642015      
207             454.573000      8791.849803     423.864469      0.100110        20.742125      
