#timestep       power           acc-energy      avg-power       dt              acc-time       
1               135.132000      13.532794       135.132000      0.100145        0.100145       
2               135.089000      28.468639       135.109437      0.110563        0.210708       
3               135.042000      41.989990       135.087714      0.100127        0.310835       
4               134.979000      55.503007       135.061230      0.100112        0.410947       
5               134.914000      69.017747       135.032375      0.100173        0.511120       
6               134.889000      82.525397       135.008886      0.100139        0.611259       
7               134.889000      96.036688       134.992007      0.100166        0.711425       
8               134.929000      109.546455      134.984233      0.100125        0.811550       
9               134.917000      123.056503      134.976849      0.100136        0.911686       
10              134.926000      136.565969      134.971817      0.100125        1.011811       
11              133.294000      149.923361      134.820620      0.100210        1.112021       
12              133.266000      163.266619      134.692206      0.100125        1.212146       
13              144.948000      177.779393      135.474706      0.100124        1.312270       
14              159.474000      193.746408      137.175990      0.100123        1.412393       
15              178.691000      211.637487      139.924131      0.100123        1.512516       
16              196.646000      231.326864      143.445888      0.100126        1.612642       
17              214.717000      252.825619      147.612297      0.100126        1.712768       
18              234.566000      276.311305      152.414653      0.100124        1.812892       
19              251.070000      301.457723      157.579718      0.100157        1.913049       
20              273.364000      328.856450      163.343867      0.100228        2.013277       
21              290.560000      357.961554      169.373409      0.100169        2.113446       
22              312.205000      389.221392      175.834078      0.100126        2.213572       
23              314.911000      420.864279      181.873145      0.100482        2.314054       
24              313.909000      452.317019      187.352939      0.100197        2.414251       
25              313.641000      483.722206      192.382147      0.100131        2.514382       
26              313.689000      515.126553      197.027171      0.100113        2.614495       
27              313.535000      546.522067      201.324773      0.100134        2.714629       
28              313.385000      577.919170      205.313303      0.100187        2.814816       
29              313.378000      609.299276      209.025564      0.100135        2.914951       
30              313.378000      640.685963      212.491949      0.100156        3.015107       
31              313.576000      672.092794      215.741842      0.100157        3.115264       
32              313.576000      703.501821      218.789480      0.100164        3.215428       
33              313.596000      734.899993      221.652447      0.100123        3.315551       
34              313.596000      766.306005      224.348224      0.100148        3.415699       
35              313.642000      797.733561      226.893067      0.100202        3.515901       
36              313.642000      829.149826      229.296035      0.100166        3.616067       
37              313.695000      860.560420      231.570121      0.100131        3.716198       
38              313.782000      891.981294      233.727261      0.100136        3.816334       
39              313.821000      923.406074      235.775092      0.100136        3.916470       
40              313.774000      954.825833      237.719625      0.100135        4.016605       
41              313.794000      986.246340      239.569975      0.100131        4.116736       
42              313.900000      1017.677147     241.334950      0.100130        4.216866       
43              313.872000      1049.136852     243.019059      0.100231        4.317097       
44              313.859000      1080.562612     244.624817      0.100127        4.417224       
45              313.865000      1111.993681     246.159749      0.100142        4.517366       
46              313.952000      1143.431892     247.629919      0.100137        4.617503       
47              313.907000      1174.863714     249.036639      0.100131        4.717634       
48              313.861000      1206.290930     250.383929      0.100131        4.817765       
49              313.895000      1237.724061     251.677150      0.100139        4.917904       
50              313.906000      1269.171792     252.919498      0.100182        5.018086       
51              313.875000      1300.600410     254.112010      0.100131        5.118217       
52              313.874000      1332.044935     255.259311      0.100182        5.218399       
53              314.019000      1363.488913     256.365602      0.100134        5.318533       
54              314.021000      1394.932464     257.431021      0.100132        5.418665       
55              314.006000      1426.373885     258.457487      0.100130        5.518795       
56              314.015000      1457.818091     259.447587      0.100136        5.618931       
57              314.064000      1489.264691     260.403799      0.100128        5.719059       
58              314.021000      1520.701019     261.326193      0.100109        5.819168       
59              314.039000      1552.144488     262.217840      0.100126        5.919294       
60              314.172000      1583.601588     263.082045      0.100127        6.019421       
61              314.164000      1615.058515     263.917856      0.100129        6.119550       
62              314.124000      1646.510495     264.726088      0.100126        6.219676       
63              314.125000      1677.961004     265.508687      0.100121        6.319797       
64              314.243000      1709.421756     266.268679      0.100116        6.419913       
65              314.211000      1740.882132     267.004906      0.100125        6.520038       
66              314.222000      1772.345181     267.719064      0.100130        6.620168       
67              314.343000      1803.818460     268.413703      0.100124        6.720292       
68              314.343000      1835.287652     269.087861      0.100111        6.820403       
69              314.346000      1866.764689     269.742712      0.100135        6.920538       
70              314.346000      1898.241097     270.378871      0.100133        7.020671       
71              314.431000      1929.725702     270.998327      0.100132        7.120803       
72              314.431000      1961.209992     271.600598      0.100131        7.220934       
73              314.393000      1992.698652     272.186024      0.100157        7.321091       
74              314.393000      2024.187626     272.755654      0.100158        7.421249       
75              314.444000      2055.673218     273.310645      0.100131        7.521380       
76              314.551000      2087.165435     273.852389      0.100118        7.621498       
77              314.439000      2118.644867     274.378607      0.100113        7.721611       
78              314.439000      2150.129015     274.891429      0.100128        7.821739       
79              314.527000      2181.623547     275.392426      0.100133        7.921872       
80              314.497000      2213.116647     275.880565      0.100138        8.022010       
81              314.491000      2244.600341     276.356461      0.100110        8.122120       
82              314.488000      2276.086880     276.820779      0.100120        8.222240       
83              314.574000      2307.585175     277.275004      0.100130        8.322370       
84              314.505000      2339.069012     277.717504      0.100106        8.422476       
85              314.467000      2370.544329     278.149099      0.100091        8.522567       
86              314.499000      2402.043290     278.571316      0.100156        8.622723       
87              314.586000      2433.543416     278.984738      0.100132        8.722855       
88              314.545000      2465.038807     279.388303      0.100130        8.822985       
89              314.523000      2496.531366     279.782556      0.100128        8.923113       
90              314.633000      2528.033365     280.169261      0.100123        9.023236       
91              314.595000      2559.536909     280.547125      0.100140        9.123376       
92              314.568000      2591.032401     280.916429      0.100123        9.223499       
93              314.581000      2622.531711     281.277969      0.100131        9.323630       
94              314.676000      2654.037701     281.632804      0.100122        9.423752       
95              314.635000      2685.557836     281.979946      0.100180        9.523932       
96              314.649000      2717.062067     282.319823      0.100125        9.624057       
97              314.695000      2748.573106     282.653197      0.100132        9.724189       
98              314.703000      2780.086835     282.979876      0.100138        9.824327       
99              314.664000      2811.597288     283.299576      0.100140        9.924467       
100             314.657000      2843.106096     283.612809      0.100137        10.024604      
101             314.776000      2874.626506     283.921020      0.100136        10.124740      
102             314.705000      2906.139176     284.222493      0.100134        10.224874      
103             314.691000      2937.655795     284.518032      0.100151        10.325025      
104             314.691000      2969.174301     284.807910      0.100157        10.425182      
105             314.732000      3000.696914     285.092662      0.100157        10.525339      
106             314.732000      3032.220157     285.372051      0.100159        10.625498      
107             314.681000      3063.733256     285.645702      0.100143        10.725641      
108             314.681000      3095.244153     285.914272      0.100136        10.825777      
109             314.777000      3126.764662     286.178799      0.100136        10.925913      
110             314.720000      3158.278520     286.437996      0.100133        11.026046      
111             314.719000      3189.791648     286.692513      0.100131        11.126177      
112             314.782000      3221.312973     286.943067      0.100137        11.226314      
113             314.857000      3252.842753     287.189861      0.100140        11.326454      
114             314.788000      3284.367827     287.431742      0.100147        11.426601      
115             314.801000      3315.903332     287.669600      0.100176        11.526777      
116             314.852000      3347.434815     287.903732      0.100147        11.626924      
117             314.797000      3378.954180     288.133348      0.100126        11.727050      
118             314.745000      3410.474318     288.358678      0.100145        11.827195      
119             314.745000      3441.995085     288.580229      0.100147        11.927342      
120             314.891000      3473.522917     288.799254      0.100123        12.027465      
121             314.836000      3505.045557     289.014210      0.100124        12.127589      
122             314.800000      3536.566481     289.225364      0.100130        12.227719      
123             314.823000      3568.088763     289.433269      0.100127        12.327846      
124             314.891000      3599.617854     289.638371      0.100127        12.427973      
125             314.848000      3631.144214     289.839861      0.100132        12.528105      
126             314.855000      3662.671905     290.038216      0.100134        12.628239      
127             314.985000      3694.210408     290.234458      0.100127        12.728366      
128             314.977000      3725.750000     290.427586      0.100133        12.828499      
129             314.950000      3757.307990     290.617640      0.100200        12.928699      
130             314.931000      3788.841086     290.804489      0.100127        13.028826      
131             314.907000      3820.449246     290.988753      0.100373        13.129199      
132             314.840000      3852.024235     291.169563      0.100289        13.229488      
133             314.837000      3883.545716     291.347331      0.100120        13.329608      
134             314.906000      3915.069381     291.522937      0.100105        13.429713      
135             314.905000      3946.601448     291.695984      0.100132        13.529845      
136             314.905000      3978.136665     291.866505      0.100142        13.629987      
137             314.863000      4009.666416     292.034225      0.100138        13.730125      
138             314.863000      4041.192388     292.199497      0.100126        13.830251      
139             314.967000      4072.729089     292.363143      0.100127        13.930378      
140             314.890000      4104.258395     292.523904      0.100128        14.030506      
141             314.849000      4135.781392     292.682086      0.100121        14.130627      
142             314.997000      4167.320152     292.839089      0.100124        14.230751      
143             315.005000      4198.859397     292.993951      0.100123        14.330874      
144             314.950000      4230.394711     293.146291      0.100128        14.431002      
145             314.950000      4261.932544     293.296543      0.100136        14.531138      
146             315.024000      4293.477472     293.445244      0.100135        14.631273      
147             314.984000      4325.015245     293.591636      0.100125        14.731398      
148             314.970000      4356.571460     293.736048      0.100188        14.831586      
149             315.005000      4388.111335     293.878668      0.100125        14.931711      
150             315.054000      4419.655802     294.019712      0.100124        15.031835      
151             314.998000      4451.200017     294.158543      0.100141        15.131976      
152             314.984000      4482.738105     294.295436      0.100126        15.232102      
153             315.048000      4514.291422     294.430997      0.100154        15.332256      
154             315.012000      4545.831683     294.564525      0.100124        15.432380      
155             314.985000      4577.369557     294.696159      0.100125        15.532505      
156             314.978000      4608.906729     294.826061      0.100125        15.632630      
157             315.065000      4640.452612     294.954864      0.100125        15.732755      
158             314.783000      4671.969945     295.080253      0.100124        15.832879      
159             314.763000      4703.486849     295.203947      0.100129        15.933008      
160             314.832000      4735.033331     295.326614      0.100201        16.033209      
161             314.845000      4766.570725     295.447799      0.100168        16.133377      
162             314.804000      4798.090475     295.567184      0.100125        16.233502      
163             314.807000      4829.618081     295.685152      0.100149        16.333651      
164             314.887000      4861.145827     295.802141      0.100124        16.433775      
165             314.886000      4892.679771     295.917730      0.100144        16.533919      
166             314.840000      4924.204700     296.031634      0.100130        16.634049      
167             315.033000      4955.756515     296.145357      0.100154        16.734203      
168             315.168000      4987.319330     296.258521      0.100146        16.834349      
169             315.023000      5018.861323     296.369467      0.100126        16.934475      
170             315.003000      5050.392493     296.478960      0.100098        17.034573      
171             315.079000      5081.976957     296.587775      0.100243        17.134816      
172             315.101000      5113.527705     296.695331      0.100129        17.234945      
173             315.050000      5145.067046     296.801328      0.100109        17.335054      
174             315.037000      5176.607920     296.906043      0.100118        17.435172      
175             315.076000      5208.159001     297.009805      0.100138        17.535310      
176             315.071000      5239.708950     297.112358      0.100136        17.635446      
177             315.017000      5271.282474     297.213541      0.100228        17.735674      
178             315.003000      5302.836955     297.313453      0.100172        17.835846      
179             315.173000      5334.397748     297.413164      0.100138        17.935984      
180             315.104000      5365.950687     297.511382      0.100135        18.036119      
181             315.101000      5397.503011     297.608498      0.100134        18.136253      
182             315.140000      5429.060500     297.704765      0.100138        18.236391      
183             315.093000      5460.625887     297.799762      0.100178        18.336569      
184             315.093000      5492.178355     297.893689      0.100137        18.436706      
185             315.058000      5523.729208     297.986417      0.100143        18.536849      
186             315.077000      5555.272827     298.078224      0.100114        18.636963      
187             315.121000      5586.822426     298.169289      0.100119        18.737082      
188             315.121000      5618.378013     298.259404      0.100138        18.837220      
189             315.084000      5649.931785     298.348375      0.100144        18.937364      
190             315.099000      5681.484538     298.436483      0.100136        19.037500      
191             315.155000      5713.046051     298.523970      0.100146        19.137646      
192             315.065000      5744.585318     298.610041      0.100104        19.237750      
193             315.058000      5776.128295     298.695197      0.100118        19.337868      
194             315.176000      5807.688128     298.780097      0.100134        19.438002      
195             315.088000      5839.230958     298.863655      0.100108        19.538110      
196             315.049000      5870.765787     298.946150      0.100095        19.638205      
197             315.028000      5902.297255     299.027700      0.100091        19.738296      
198             315.111000      5933.844278     299.108864      0.100114        19.838410      
199             315.055000      5965.385694     299.188932      0.100114        19.938524      
200             315.056000      5996.918074     299.268181      0.100085        20.038609      
201             315.076000      6028.453715     299.346746      0.100089        20.138698      
202             315.113000      6059.997157     299.424727      0.100102        20.238800      
203             315.054000      6091.561787     299.501715      0.100188        20.338988      
204             315.081000      6123.108327     299.578031      0.100122        20.439110      
205             315.207000      6154.664015     299.654209      0.100111        20.539221      
206             315.152000      6186.240039     299.729442      0.100193        20.639414      
207             315.152000      6217.822051     299.803962      0.100212        20.739626      
