#timestep       power           acc-energy      avg-power       dt              acc-time       
1               126.790000      12.696497       126.790000      0.100138        0.100138       
2               126.756000      25.682776       126.772806      0.102451        0.202589       
3               126.756000      38.646366       126.767168      0.102272        0.304861       
4               126.378000      51.571170       126.669410      0.102271        0.407132       
5               126.349000      64.492630       126.605084      0.102268        0.509400       
6               126.692000      77.446380       126.619613      0.102246        0.611646       
7               126.557000      90.392402       126.610642      0.102294        0.713940       
8               126.459000      103.328146      126.591638      0.102292        0.816232       
9               126.361000      116.250580      126.565958      0.102266        0.918498       
10              125.977000      129.129964      126.506969      0.102236        1.020734       
11              122.016000      141.609395      126.097959      0.102277        1.123011       
12              121.975000      154.327240      125.747684      0.104266        1.227277       
13              151.685000      169.868278      127.746155      0.102456        1.329733       
14              176.009000      187.912721      131.200787      0.102520        1.432253       
15              202.896000      208.686431      135.984053      0.102386        1.534639       
16              229.682000      232.201504      141.844024      0.102381        1.637020       
17              256.355000      258.439951      148.582334      0.102352        1.739372       
18              283.356000      287.452488      156.074805      0.102389        1.841761       
19              328.660000      321.091168      165.160838      0.102351        1.944112       
20              357.971000      357.728068      174.803523      0.102346        2.046458       
21              387.479000      397.398555      184.936403      0.102381        2.148839       
22              416.993000      441.007266      195.705930      0.104579        2.253418       
23              416.825000      483.679309      205.314947      0.102374        2.355792       
24              416.690000      526.367949      214.123993      0.102447        2.458239       
25              416.388000      569.011077      222.213444      0.102412        2.560651       
26              416.317000      611.630697      229.675248      0.102373        2.663024       
27              416.382000      654.251975      236.586217      0.102361        2.765385       
28              416.280000      696.872803      243.001636      0.102385        2.867770       
29              416.220000      739.475417      248.971060      0.102356        2.970126       
30              416.617000      782.131582      254.557615      0.102387        3.072513       
31              417.074000      824.954655      259.812854      0.102675        3.175188       
32              417.197000      868.588455      264.831639      0.104588        3.279776       
33              416.951000      911.277983      269.436607      0.102385        3.382161       
34              416.723000      953.986256      273.768407      0.102486        3.484647       
35              416.927000      996.665406      277.853859      0.102366        3.587013       
36              417.049000      1039.357878     281.716060      0.102368        3.689381       
37              416.927000      1082.043698     285.366912      0.102382        3.791763       
38              417.049000      1124.737838     288.828671      0.102372        3.894135       
39              417.392000      1167.466674     292.121837      0.102371        3.996506       
40              417.760000      1210.240285     295.260206      0.102388        4.098894       
41              417.625000      1253.020955     298.243737      0.102438        4.201332       
42              418.095000      1301.281243     301.448527      0.115429        4.316761       
43              418.095000      1344.089154     304.151128      0.102388        4.419149       
44              418.030000      1386.889155     306.729786      0.102385        4.521534       
45              418.128000      1429.703790     309.196677      0.102396        4.623930       
46              418.706000      1472.568398     311.568701      0.102374        4.726304       
47              419.118000      1515.471831     313.848706      0.102366        4.828670       
48              419.045000      1558.374077     316.032845      0.102381        4.931051       
49              418.329000      1601.202600     318.113549      0.102380        5.033431       
50              418.304000      1644.031492     320.110933      0.102387        5.135818       
51              418.146000      1687.205903     322.043016      0.103252        5.239070       
52              418.201000      1730.274751     323.896783      0.102986        5.342056       
53              418.118000      1773.099651     325.669297      0.102423        5.444479       
54              418.369000      1815.946075     327.380824      0.102413        5.546892       
55              418.649000      1858.807779     329.034865      0.102381        5.649273       
56              418.718000      1901.672778     330.631111      0.102372        5.751645       
57              417.914000      1944.458813     332.157586      0.102380        5.854025       
58              417.823000      1987.239710     333.630163      0.102390        5.956415       
59              418.271000      2030.060204     335.060334      0.102375        6.058790       
60              418.635000      2072.922148     336.449159      0.102385        6.161175       
61              418.575000      2115.744045     337.790555      0.102304        6.263479       
62              418.821000      2158.612468     339.093427      0.102355        6.365834       
63              419.032000      2201.496622     340.358234      0.102341        6.468175       
64              419.098000      2244.384178     341.584574      0.102333        6.570508       
65              418.633000      2287.248429     342.766829      0.102391        6.672899       
66              418.633000      2330.116449     343.913449      0.102400        6.775299       
67              418.826000      2372.998367     345.028650      0.102386        6.877685       
68              419.042000      2415.882707     346.113811      0.102339        6.980024       
69              418.969000      2458.775077     347.166932      0.102376        7.082400       
70              418.969000      2501.677922     348.190287      0.102401        7.184801       
71              419.131000      2544.583105     349.186832      0.102367        7.287168       
72              419.672000      2587.548704     350.163373      0.102379        7.389547       
73              419.640000      2630.511867     351.112807      0.102381        7.491928       
74              419.437000      2673.450472     352.033824      0.102372        7.594300       
75              419.619000      2716.371201     352.932008      0.102285        7.696585       
76              419.569000      2759.319123     353.806626      0.102362        7.798947       
77              419.584000      2802.263965     354.658686      0.102351        7.901298       
78              419.840000      2845.227032     355.492074      0.102332        8.003630       
79              419.889000      2888.202251     356.305173      0.102349        8.105979       
80              419.937000      2931.206320     357.099030      0.102406        8.208385       
81              419.467000      2974.131217     357.866983      0.102332        8.310717       
82              419.461000      3017.122614     358.617338      0.102492        8.413209       
83              419.245000      3060.049528     359.346321      0.102391        8.515600       
84              419.550000      3103.003057     360.061529      0.102380        8.617980       
85              419.398000      3146.095782     360.760641      0.102749        8.720729       
86              419.580000      3189.051544     361.443145      0.102378        8.823107       
87              420.007000      3232.048920     362.114858      0.102373        8.925480       
88              420.101000      3275.048778     362.772294      0.102356        9.027836       
89              419.673000      3318.010703     363.410278      0.102370        9.130206       
90              419.533000      3361.878332     364.045742      0.104563        9.234769       
91              419.796000      3404.859985     364.657074      0.102387        9.337156       
92              419.826000      3447.871579     365.255839      0.102451        9.439607       
93              419.703000      3490.845389     365.840088      0.102391        9.541998       
94              419.765000      3533.814213     366.412440      0.102364        9.644362       
95              419.932000      3576.790474     366.974399      0.102341        9.746703       
96              420.468000      3619.842193     367.530512      0.102390        9.849093       
97              420.403000      3662.864134     368.074223      0.102335        9.951428       
98              420.282000      3705.895126     368.605897      0.102386        10.053814      
99              420.706000      3748.969110     369.131120      0.102385        10.156199      
100             420.557000      3792.966101     369.655442      0.104616        10.260815      
101             420.557000      3836.010951     370.158172      0.102352        10.363167      
102             420.473000      3879.101865     370.650866      0.102482        10.465649      
103             420.739000      3922.183435     371.136176      0.102395        10.568044      
104             421.344000      3965.318949     371.617888      0.102376        10.670420      
105             421.290000      4008.435452     372.089786      0.102344        10.772764      
106             420.575000      4051.461957     372.545896      0.102304        10.875068      
107             420.527000      4094.514250     372.993374      0.102377        10.977445      
108             420.070000      4137.515976     373.428322      0.102368        11.079813      
109             420.235000      4180.567370     373.857140      0.102446        11.182259      
110             420.403000      4225.154051     374.294452      0.106057        11.288316      
111             420.473000      4268.181474     374.709310      0.102331        11.390647      
112             420.840000      4311.264969     375.120222      0.102375        11.493022      
113             420.575000      4354.320914     375.521536      0.102374        11.595396      
114             419.859000      4397.305659     375.909578      0.102379        11.697775      
115             420.194000      4440.325120     376.293796      0.102380        11.800155      
116             420.544000      4483.361070     376.674246      0.102334        11.902489      
117             420.679000      4526.415883     377.049404      0.102346        12.004835      
118             420.774000      4569.528387     377.419431      0.102460        12.107295      
119             420.867000      4612.601178     377.783615      0.102343        12.209638      
120             420.926000      4655.678324     378.142221      0.102339        12.311977      
121             420.621000      4698.789453     378.492926      0.102494        12.414471      
122             420.410000      4741.838176     378.835838      0.102397        12.516868      
123             420.562000      4784.892369     379.174339      0.102373        12.619241      
124             420.981000      4827.997035     379.510823      0.102391        12.721632      
125             420.960000      4871.077660     379.841600      0.102339        12.823971      
126             420.562000      4914.136060     380.164125      0.102383        12.926354      
127             420.975000      4957.223693     380.484731      0.102352        13.028706      
128             421.245000      5000.350335     380.802526      0.102379        13.131085      
129             421.208000      5044.394792     381.121745      0.104567        13.235652      
130             421.014000      5087.484312     381.427852      0.102347        13.337999      
131             421.510000      5130.681921     381.733477      0.102483        13.440482      
132             421.310000      5173.827857     382.032747      0.102409        13.542891      
133             421.142000      5216.946901     382.326200      0.102386        13.645277      
134             421.375000      5260.075897     382.616924      0.102353        13.747630      
135             421.406000      5303.216915     382.903638      0.102374        13.850004      
136             421.559000      5346.374439     383.187273      0.102376        13.952380      
137             421.741000      5389.550174     383.468098      0.102375        14.054755      
138             421.348000      5432.683990     383.742010      0.102371        14.157126      
139             420.979000      5476.699449     384.015001      0.104555        14.261681      
140             420.797000      5519.782750     384.277178      0.102385        14.364066      
141             420.867000      5562.827764     384.535868      0.102277        14.466343      
142             421.067000      5605.910919     384.792435      0.102319        14.568662      
143             421.097000      5648.995037     385.045619      0.102314        14.670976      
144             421.255000      5692.075522     385.296277      0.102267        14.773243      
145             421.255000      5735.370005     385.544707      0.102775        14.876018      
146             420.682000      5778.404511     385.784683      0.102297        14.978315      
147             420.777000      5821.465146     386.022138      0.102336        15.080651      
148             421.147000      5864.555644     386.258842      0.102317        15.182968      
149             421.111000      5908.616488     386.497374      0.104630        15.287598      
150             421.052000      5951.765476     386.727466      0.102479        15.390077      
151             421.082000      5994.899853     386.954619      0.102437        15.492514      
152             421.146000      6038.017622     387.179089      0.102382        15.594896      
153             421.521000      6081.169570     387.403054      0.102372        15.697268      
154             421.304000      6124.289613     387.622663      0.102349        15.799617      
155             421.398000      6167.429812     387.840102      0.102374        15.901991      
156             421.635000      6210.601441     388.056311      0.102391        16.004382      
157             421.435000      6253.745007     388.268463      0.102373        16.106755      
158             421.373000      6296.875483     388.477511      0.102357        16.209112      
159             421.803000      6340.106072     388.686903      0.102490        16.311602      
160             422.001000      6383.341341     388.894843      0.102453        16.414055      
161             422.229000      6426.574213     389.101495      0.102392        16.516447      
162             421.972000      6469.774440     389.303987      0.102377        16.618824      
163             421.637000      6512.945852     389.501974      0.102390        16.721214      
164             421.499000      6556.110722     389.696744      0.102408        16.823622      
165             421.429000      6599.261259     389.888703      0.102391        16.926013      
166             421.333000      6642.396489     390.077752      0.102378        17.028391      
167             421.574000      6685.556392     390.265982      0.102378        17.130769      
168             421.894000      6729.961157     390.459117      0.105251        17.236020      
169             421.726000      6773.138730     390.643748      0.102383        17.338403      
170             421.099000      6816.262215     390.822572      0.102407        17.440810      
171             421.033000      6859.386099     390.998951      0.102424        17.543234      
172             421.215000      6902.493664     391.174199      0.102341        17.645575      
173             421.385000      6945.638852     391.348487      0.102389        17.747964      
174             421.175000      6988.756643     391.519547      0.102375        17.850339      
175             421.390000      7031.911614     391.689942      0.102411        17.952750      
176             421.726000      7075.086235     391.860253      0.102376        18.055126      
177             421.828000      7118.272986     392.029224      0.102380        18.157506      
178             421.324000      7161.393391     392.193419      0.102345        18.259851      
179             421.361000      7204.539072     392.356070      0.102396        18.362247      
180             421.514000      7247.706320     392.517788      0.102410        18.464657      
181             421.725000      7290.879996     392.678829      0.102374        18.567031      
182             421.848000      7334.083137     392.838841      0.102414        18.669445      
183             421.514000      7377.241112     392.995245      0.102388        18.771833      
184             422.072000      7420.451999     393.152964      0.102378        18.874211      
185             422.316000      7463.694202     393.310321      0.102393        18.976604      
186             422.070000      7506.899819     393.464627      0.102366        19.078970      
187             421.601000      7550.061222     393.614797      0.102375        19.181345      
188             421.735000      7593.223690     393.764040      0.102345        19.283690      
189             421.802000      7636.408622     393.912115      0.102382        19.386072      
190             421.601000      7679.578457     394.057596      0.102395        19.488467      
191             421.839000      7722.765490     394.202776      0.102378        19.590845      
192             422.007000      7765.965081     394.347305      0.102367        19.693212      
193             422.227000      7809.192681     394.491495      0.102380        19.795592      
194             421.607000      7852.360178     394.631022      0.102388        19.897980      
195             421.730000      7895.534365     394.769731      0.102374        20.000354      
196             421.578000      7938.676972     394.906203      0.102336        20.102690      
197             421.760000      7981.856339     395.042271      0.102379        20.205069      
198             421.796000      8025.009866     395.177057      0.102309        20.307378      
199             421.854000      8068.755704     395.312590      0.103699        20.411077      
200             422.099000      8111.957114     395.446237      0.102349        20.513426      
201             422.033000      8155.163164     395.578264      0.102376        20.615802      
202             421.466000      8198.317911     395.706204      0.102392        20.718194      
203             421.519000      8241.475134     395.833139      0.102385        20.820579      
204             421.931000      8284.676649     395.960853      0.102390        20.922969      
205             421.854000      8327.861843     396.086924      0.102370        21.025339      
206             422.078000      8371.057306     396.212821      0.102340        21.127679      
207             422.045000      8415.217562     396.340124      0.104634        21.232313      
