#timestep       power           acc-energy      avg-power       dt              acc-time       
1               137.262000      13.741573       137.262000      0.100112        0.100112       
2               137.339000      29.164743       137.302709      0.112300        0.212412       
3               137.242000      42.902530       137.283264      0.100099        0.312511       
4               137.216000      56.634284       137.266949      0.100074        0.412585       
5               137.183000      70.363559       137.250561      0.100080        0.512665       
6               137.210000      84.100201       137.243934      0.100114        0.612779       
7               137.116000      97.830723       137.225964      0.100138        0.712917       
8               137.081000      111.557740      137.208110      0.100138        0.813055       
9               137.120000      125.289211      137.198448      0.100142        0.913197       
10              137.057000      139.017525      137.184466      0.100165        1.013362       
11              133.818000      152.417524      136.881723      0.100136        1.113498       
12              133.687000      165.802401      136.618165      0.100121        1.213619       
13              143.089000      180.130904      137.111384      0.100137        1.313756       
14              159.944000      196.145617      138.728322      0.100127        1.413883       
15              176.716000      213.840543      141.240703      0.100132        1.514015       
16              192.031000      233.069759      144.391547      0.100136        1.614151       
17              209.139000      254.021514      148.175216      0.100181        1.714332       
18              225.241000      276.572192      152.427563      0.100118        1.814450       
19              239.939000      300.592005      157.003342      0.100108        1.914558       
20              258.933000      326.512752      162.068093      0.100106        2.014664       
21              275.782000      354.141420      167.454866      0.100183        2.114847       
22              295.016000      383.681667      173.221435      0.100131        2.214978       
23              298.052000      413.523826      178.620132      0.100124        2.315102       
24              297.459000      443.312560      183.547581      0.100144        2.415246       
25              296.652000      473.018105      188.050207      0.100136        2.515382       
26              296.340000      502.690036      192.195800      0.100128        2.615510       
27              296.459000      532.372104      196.039855      0.100122        2.715632       
28              296.198000      562.031595      199.601670      0.100134        2.815766       
29              295.412000      591.602336      202.890783      0.100100        2.915866       
30              294.615000      621.102136      205.935995      0.100130        3.015996       
31              294.021000      650.540695      208.766252      0.100124        3.116120       
32              294.040000      679.984390      211.421168      0.100135        3.216255       
33              294.103000      709.442923      213.918363      0.100164        3.316419       
34              294.103000      738.892044      216.268408      0.100132        3.416551       
35              294.150000      768.347049      218.486049      0.100136        3.516687       
36              294.150000      797.832939      220.583030      0.100241        3.616928       
37              294.216000      827.288080      222.566245      0.100114        3.717042       
38              294.286000      856.750817      224.447303      0.100116        3.817158       
39              294.304000      886.223302      226.233139      0.100143        3.917301       
40              294.309000      915.702469      227.930416      0.100164        4.017465       
41              294.360000      945.179974      229.545997      0.100141        4.117606       
42              294.443000      974.669323      231.087012      0.100153        4.217759       
43              294.522000      1004.187496     232.559391      0.100224        4.317983       
44              294.551000      1033.684423     233.964504      0.100142        4.418125       
45              294.524000      1063.179234     235.306759      0.100144        4.518269       
46              294.584000      1092.679465     236.592080      0.100142        4.618411       
47              294.649000      1122.187089     237.824260      0.100145        4.718556       
48              294.736000      1151.703426     239.007032      0.100145        4.818701       
49              294.763000      1181.222172     240.142182      0.100144        4.918845       
50              294.758000      1210.739827     241.231911      0.100142        5.018987       
51              294.785000      1240.259597     242.279513      0.100140        5.119127       
52              294.842000      1269.782127     243.287910      0.100130        5.219257       
53              294.949000      1299.315075     244.260348      0.100129        5.319386       
54              295.009000      1328.849016     245.197805      0.100112        5.419498       
55              294.998000      1358.389231     246.101279      0.100137        5.519635       
56              295.006000      1387.927297     246.972611      0.100127        5.619762       
57              295.061000      1417.471164     247.814410      0.100128        5.719890       
58              295.123000      1447.013862     248.628110      0.100103        5.819993       
59              295.217000      1476.588701     249.416478      0.100180        5.920173       
60              295.191000      1506.148833     250.177870      0.100139        6.020312       
61              295.119000      1535.700869     250.913147      0.100136        6.120448       
62              295.173000      1565.258312     251.625621      0.100136        6.220584       
63              295.247000      1594.821395     252.316652      0.100130        6.320714       
64              295.408000      1624.399416     252.988615      0.100126        6.420840       
65              295.427000      1653.980817     253.640266      0.100131        6.520971       
66              295.335000      1683.553301     254.270822      0.100132        6.621103       
67              295.387000      1713.130697     254.883359      0.100131        6.721234       
68              295.458000      1742.714906     255.478949      0.100130        6.821364       
69              295.603000      1772.314226     256.059416      0.100132        6.921496       
70              295.694000      1801.918222     256.624542      0.100117        7.021613       
71              295.607000      1831.519125     257.172659      0.100136        7.121749       
72              295.607000      1861.121210     257.705596      0.100140        7.221889       
73              295.635000      1890.726394     258.224344      0.100141        7.322030       
74              295.705000      1920.338884     258.730043      0.100142        7.422172       
75              295.931000      1949.966904     259.225170      0.100118        7.522290       
76              295.931000      1979.609721     259.707527      0.100168        7.622458       
77              295.864000      2009.238429     260.176387      0.100143        7.722601       
78              295.816000      2038.862627     260.632633      0.100144        7.822745       
79              295.901000      2068.493561     261.078393      0.100138        7.922883       
80              295.986000      2098.141295     261.514207      0.100166        8.023049       
81              296.138000      2127.792704     261.940983      0.100127        8.123176       
82              296.146000      2157.444915     262.357463      0.100127        8.223303       
83              296.028000      2187.085902     262.762512      0.100129        8.323432       
84              296.090000      2216.737539     263.158727      0.100144        8.423576       
85              296.203000      2246.400492     263.546960      0.100144        8.523720       
86              296.395000      2276.104310     263.928680      0.100217        8.623937       
87              296.454000      2305.791510     264.302028      0.100141        8.724078       
88              296.273000      2335.459992     264.664841      0.100139        8.824217       
89              296.343000      2365.138447     265.020333      0.100149        8.924366       
90              296.417000      2394.820756     265.368714      0.100137        9.024503       
91              296.583000      2424.545194     265.711562      0.100223        9.124726       
92              296.718000      2454.257051     266.048134      0.100135        9.224861       
93              296.550000      2483.963651     266.375799      0.100174        9.325035       
94              296.434000      2513.644995     266.695122      0.100128        9.425163       
95              296.518000      2543.337418     267.008642      0.100137        9.525300       
96              296.733000      2573.048996     267.317851      0.100129        9.625429       
97              296.834000      2602.771875     267.621745      0.100133        9.725562       
98              296.753000      2632.486643     267.918620      0.100133        9.825695       
99              296.679000      2662.201418     268.208830      0.100158        9.925853       
100             296.728000      2691.979854     268.494289      0.100356        10.026209      
101             296.893000      2721.749612     268.775489      0.100271        10.126480      
102             297.004000      2751.490701     269.051897      0.100137        10.226617      
103             297.089000      2781.245353     269.323814      0.100154        10.326771      
104             296.902000      2810.972369     269.588633      0.100124        10.426895      
105             296.987000      2840.713241     269.849269      0.100142        10.527037      
106             297.084000      2870.462341     270.105895      0.100137        10.627174      
107             297.402000      2900.242988     270.360695      0.100136        10.727310      
108             297.343000      2930.017429     270.610234      0.100135        10.827445      
109             297.343000      2959.792168     270.855203      0.100136        10.927581      
110             297.155000      2989.554024     271.094063      0.100156        11.027737      
111             297.155000      3019.375311     271.329087      0.100356        11.128093      
112             297.234000      3049.149538     271.560193      0.100171        11.228264      
113             297.540000      3078.945789     271.789852      0.100142        11.328406      
114             297.540000      3108.742337     272.015488      0.100143        11.428549      
115             297.275000      3138.532265     272.235048      0.100210        11.528759      
116             297.135000      3168.287661     272.449472      0.100141        11.628900      
117             297.194000      3198.080468     272.660959      0.100247        11.729147      
118             297.572000      3227.879328     272.871842      0.100140        11.829287      
119             297.595000      3257.680491     273.079377      0.100140        11.929427      
120             297.395000      3287.469656     273.281846      0.100167        12.029594      
121             297.328000      3317.250623     273.480408      0.100162        12.129756      
122             297.368000      3347.056115     273.676179      0.100231        12.229987      
123             297.708000      3376.873953     273.871390      0.100158        12.330145      
124             297.783000      3406.685605     274.063972      0.100112        12.430257      
125             297.888000      3436.511641     274.254340      0.100125        12.530382      
126             297.667000      3466.320610     274.439969      0.100142        12.630524      
127             297.722000      3496.135384     274.623112      0.100143        12.730667      
128             297.867000      3525.965275     274.804531      0.100145        12.830812      
129             298.288000      3555.862681     274.986554      0.100230        12.931042      
130             298.299000      3585.733448     275.165697      0.100137        13.031179      
131             297.933000      3615.568756     275.339323      0.100141        13.131320      
132             297.984000      3645.410066     275.510712      0.100144        13.231464      
133             298.109000      3675.257634     275.680430      0.100123        13.331587      
134             298.462000      3705.141440     275.850254      0.100126        13.431713      
135             298.578000      3735.033875     276.018406      0.100116        13.531829      
136             298.251000      3764.911467     276.181784      0.100176        13.632005      
137             298.275000      3794.785200     276.342921      0.100155        13.732160      
138             298.342000      3824.660869     276.502183      0.100139        13.832299      
139             298.632000      3854.557516     276.661198      0.100112        13.932411      
140             298.812000      3884.477562     276.819256      0.100130        14.032541      
141             298.644000      3914.384369     276.973903      0.100142        14.132683      
142             298.452000      3944.272248     277.125024      0.100143        14.232826      
143             298.501000      3974.164735     277.274374      0.100142        14.332968      
144             298.585000      4004.070113     277.422257      0.100157        14.433125      
145             298.982000      4034.010170     277.570812      0.100140        14.533265      
146             298.888000      4063.941412     277.716694      0.100142        14.633407      
147             298.504000      4093.832409     277.857974      0.100136        14.733543      
148             298.552000      4123.739557     277.997723      0.100174        14.833717      
149             298.585000      4153.653594     278.135836      0.100186        14.933903      
150             298.585000      4183.549118     278.272024      0.100124        15.034027      
151             299.136000      4213.499811     278.410055      0.100124        15.134151      
152             299.136000      4243.450504     278.546272      0.100124        15.234275      
153             298.552000      4273.342426     278.676895      0.100123        15.334398      
154             298.552000      4303.235243     278.805828      0.100126        15.434524      
155             299.071000      4333.185410     278.936467      0.100144        15.534668      
156             299.071000      4363.130192     279.065410      0.100126        15.634794      
157             299.131000      4393.082778     279.193101      0.100132        15.734926      
158             298.673000      4422.990697     279.316285      0.100136        15.835062      
159             298.638000      4452.891230     279.437686      0.100123        15.935185      
160             298.745000      4482.802177     279.558238      0.100122        16.035307      
161             299.095000      4512.748465     279.679467      0.100123        16.135430      
162             299.128000      4542.697759     279.799403      0.100122        16.235552      
163             298.967000      4572.636314     279.916903      0.100140        16.335692      
164             298.846000      4602.559465     280.032221      0.100129        16.435821      
165             298.878000      4632.497178     280.146380      0.100167        16.535988      
166             299.100000      4662.445463     280.260456      0.100128        16.636116      
167             299.359000      4692.420579     280.374721      0.100131        16.736247      
168             299.247000      4722.386276     280.486967      0.100137        16.836384      
169             299.009000      4752.329635     280.596483      0.100142        16.936526      
170             299.029000      4782.268718     280.704808      0.100121        17.036647      
171             299.047000      4812.243993     280.812094      0.100236        17.136883      
172             299.467000      4842.229623     280.920460      0.100130        17.237013      
173             299.547000      4872.220868     281.028028      0.100122        17.337135      
174             299.021000      4902.164233     281.131358      0.100138        17.437273      
175             299.040000      4932.105015     281.233600      0.100123        17.537396      
176             299.132000      4962.055307     281.335205      0.100124        17.637520      
177             299.648000      4992.071946     281.438626      0.100173        17.737693      
178             299.655000      5022.099175     281.540958      0.100206        17.837899      
179             299.171000      5052.056663     281.639374      0.100135        17.938034      
180             299.105000      5082.006047     281.736326      0.100130        18.038164      
181             299.131000      5111.958034     281.832351      0.100130        18.138294      
182             299.620000      5141.957786     281.930002      0.100126        18.238420      
183             299.708000      5171.966050     282.027066      0.100125        18.338545      
184             299.479000      5201.950486     282.121831      0.100122        18.438667      
185             299.177000      5231.904087     282.213938      0.100120        18.538787      
186             299.242000      5261.864795     282.305407      0.100122        18.638909      
187             299.533000      5291.861228     282.397474      0.100144        18.739053      
188             299.533000      5321.855264     282.488554      0.100136        18.839189      
189             299.618000      5351.857513     282.579120      0.100135        18.939324      
190             299.618000      5381.860061     282.668734      0.100136        19.039460      
191             299.277000      5411.827864     282.755625      0.100134        19.139594      
192             299.283000      5441.797764     282.841647      0.100139        19.239733      
193             299.436000      5471.782686     282.927569      0.100138        19.339871      
194             299.834000      5501.807763     283.014657      0.100139        19.440010      
195             299.748000      5531.823928     283.100411      0.100138        19.540148      
196             299.278000      5561.792131     283.182892      0.100135        19.640283      
197             299.293000      5591.761237     283.264610      0.100133        19.740416      
198             299.376000      5621.737456     283.345919      0.100129        19.840545      
199             299.813000      5651.755933     283.428602      0.100124        19.940669      
200             299.825000      5681.770814     283.510505      0.100108        20.040777      
201             299.377000      5711.739051     283.589363      0.100102        20.140879      
202             299.378000      5741.777741     283.667629      0.100337        20.241216      
203             299.367000      5771.791079     283.745005      0.100256        20.341472      
204             299.798000      5801.810153     283.823639      0.100131        20.441603      
205             299.804000      5831.825030     283.901523      0.100115        20.541718      
206             299.396000      5861.799959     283.976675      0.100118        20.641836      
207             299.382000      5891.780372     284.051051      0.100141        20.741977      
