#timestep       power           acc-energy      avg-power       dt              acc-time       
1               134.328000      13.449591       134.328000      0.100125        0.100125       
2               134.328000      28.717043       134.328000      0.113658        0.213783       
3               134.278000      42.165522       134.312049      0.100154        0.313937       
4               134.229000      55.645335       134.291921      0.100424        0.414361       
5               134.207000      69.090460       134.275387      0.100182        0.514543       
6               134.162000      82.524638       134.256916      0.100134        0.614677       
7               134.116000      95.949650       134.237181      0.100100        0.714777       
8               134.070000      109.373140      134.216640      0.100123        0.814900       
9               134.005000      122.786237      134.193488      0.100094        0.914994       
10              133.977000      136.200148      134.172136      0.100121        1.015115       
11              132.804000      149.493032      134.049341      0.100094        1.115209       
12              132.802000      162.791293      133.946569      0.100136        1.215345       
13              138.799000      176.689375      134.315925      0.100131        1.315476       
14              158.720000      192.615816      136.045509      0.100343        1.415819       
15              178.309000      210.500387      138.841508      0.100301        1.516120       
16              191.180000      229.757375      142.102113      0.100727        1.616847       
17              207.351000      250.539544      145.910743      0.100227        1.717074       
18              224.969000      273.092461      150.271835      0.100249        1.817323       
19              239.788000      297.114183      154.948565      0.100179        1.917502       
20              259.227000      323.087432      160.126834      0.100195        2.017697       
21              275.509000      350.661475      165.579668      0.100084        2.117781       
22              291.834000      379.906160      171.283905      0.100210        2.217991       
23              295.224000      409.455721      176.635488      0.100092        2.318083       
24              295.287000      439.051451      181.553006      0.100227        2.418310       
25              295.239000      468.611370      186.072672      0.100122        2.518432       
26              295.310000      498.177217      190.249267      0.100118        2.618550       
27              295.404000      527.755429      194.122080      0.100128        2.718678       
28              295.484000      557.344901      197.722981      0.100139        2.818817       
29              295.586000      586.935129      201.079277      0.100107        2.918924       
30              295.700000      616.534699      204.216561      0.100100        3.019024       
31              295.700000      646.141957      207.153217      0.100126        3.119150       
32              295.812000      675.805097      209.914714      0.100277        3.219427       
33              295.872000      705.439044      212.508203      0.100158        3.319585       
34              295.872000      735.071513      214.949658      0.100153        3.419738       
35              295.772000      764.688938      217.248952      0.100136        3.519874       
36              295.941000      794.318847      219.425399      0.100121        3.619995       
37              295.975000      823.946832      221.485249      0.100103        3.720098       
38              295.998000      853.577120      223.437751      0.100103        3.820201       
39              296.062000      883.212926      225.292121      0.100100        3.920301       
40              296.160000      912.857654      227.056539      0.100097        4.020398       
41              296.227000      942.510865      228.736958      0.100103        4.120501       
42              296.247000      972.169633      230.338328      0.100115        4.220616       
43              296.248000      1001.832946     231.865735      0.100130        4.320746       
44              296.354000      1031.493536     233.325711      0.100085        4.420831       
45              296.358000      1061.152155     234.721024      0.100077        4.520908       
46              296.403000      1090.815278     236.056875      0.100077        4.620985       
47              296.385000      1120.483120     237.335985      0.100099        4.721084       
48              296.493000      1150.162070     238.564234      0.100100        4.821184       
49              296.482000      1179.841400     239.742352      0.100105        4.921289       
50              296.425000      1209.540221     240.873301      0.100190        5.021479       
51              296.523000      1239.246488     241.961834      0.100182        5.121661       
52              296.525000      1268.933978     243.007982      0.100118        5.221779       
53              296.553000      1298.621306     244.015197      0.100108        5.321887       
54              296.659000      1328.331705     244.987577      0.100150        5.422037       
55              296.681000      1358.069228     245.925857      0.100234        5.522271       
56              296.668000      1387.777562     246.829618      0.100140        5.622411       
57              296.682000      1417.486110     247.701960      0.100136        5.722547       
58              296.768000      1447.208019     248.545910      0.100152        5.822699       
59              296.818000      1476.931671     249.362075      0.100141        5.922840       
60              296.836000      1506.649407     250.151198      0.100115        6.022955       
61              296.813000      1536.360091     250.914020      0.100099        6.123054       
62              296.820000      1566.072664     251.652443      0.100103        6.223157       
63              296.732000      1595.775240     252.366066      0.100099        6.323256       
64              296.823000      1625.487816     253.058885      0.100102        6.423358       
65              296.823000      1655.267177     253.731929      0.100327        6.523685       
66              296.755000      1685.017756     254.383081      0.100253        6.623938       
67              296.755000      1714.722338     255.013854      0.100098        6.724036       
68              296.812000      1744.442421     255.627159      0.100131        6.824167       
69              296.812000      1774.161019     256.222696      0.100126        6.924293       
70              296.827000      1803.879635     256.801441      0.100121        7.024414       
71              296.924000      1833.613307     257.365382      0.100139        7.124553       
72              296.877000      1863.338414     257.912969      0.100126        7.224679       
73              296.970000      1893.074911     258.446894      0.100133        7.324812       
74              296.978000      1922.814882     258.966572      0.100142        7.424954       
75              297.042000      1952.553242     259.473135      0.100115        7.525069       
76              297.023000      1982.289996     259.966151      0.100116        7.625185       
77              297.140000      2012.037573     260.447891      0.100113        7.725298       
78              297.165000      2041.786761     260.917611      0.100110        7.825408       
79              297.104000      2071.526277     261.374640      0.100098        7.925506       
80              297.239000      2101.275443     261.821895      0.100085        8.025591       
81              297.248000      2131.027887     262.258277      0.100093        8.125684       
82              295.586000      2160.613090     262.663804      0.100090        8.225774       
83              295.708000      2190.208729     263.061024      0.100084        8.325858       
84              295.621000      2219.795366     263.447770      0.100083        8.425941       
85              295.722000      2249.392110     263.826622      0.100083        8.526024       
86              295.707000      2278.998591     264.196648      0.100121        8.626145       
87              295.693000      2308.590364     264.557861      0.100076        8.726221       
88              295.746000      2338.187440     264.911484      0.100076        8.826297       
89              295.774000      2367.787615     265.257496      0.100077        8.926374       
90              295.676000      2397.396905     265.594962      0.100141        9.026515       
91              295.763000      2427.009584     265.925918      0.100123        9.126638       
92              297.334000      2456.771528     266.266647      0.100096        9.226734       
93              297.346000      2486.531700     266.600160      0.100086        9.326820       
94              297.378000      2516.296561     266.926946      0.100091        9.426911       
95              297.346000      2546.057030     267.246517      0.100087        9.526998       
96              297.357000      2575.814437     267.559514      0.100073        9.627071       
97              297.412000      2605.579430     267.866658      0.100080        9.727151       
98              297.344000      2635.349512     268.166972      0.100120        9.827271       
99              297.410000      2665.162485     268.462251      0.100242        9.927513       
100             297.326000      2694.922439     268.750359      0.100092        10.027605      
101             297.326000      2724.682393     269.032772      0.100092        10.127697      
102             297.339000      2754.447514     269.309820      0.100105        10.227802      
103             297.384000      2784.219221     269.581952      0.100112        10.327914      
104             297.384000      2814.007284     269.849005      0.100167        10.428081      
105             297.417000      2843.786161     270.111181      0.100125        10.528206      
106             297.453000      2873.564181     270.368719      0.100110        10.628316      
107             297.432000      2903.341585     270.621267      0.100115        10.728431      
108             297.556000      2933.160267     270.870530      0.100212        10.828643      
109             297.581000      2962.951696     271.115209      0.100112        10.928755      
110             297.557000      2992.746079     271.355271      0.100130        11.028885      
111             297.644000      3022.550065     271.591803      0.100133        11.129018      
112             297.652000      3052.351281     271.824160      0.100121        11.229139      
113             297.609000      3082.152656     272.052065      0.100136        11.329275      
114             297.694000      3111.962840     272.276723      0.100137        11.429412      
115             297.714000      3141.774431     272.497647      0.100135        11.529547      
116             297.700000      3171.584323     272.714645      0.100134        11.629681      
117             297.716000      3201.394626     272.928066      0.100130        11.729811      
118             297.762000      3231.207451     273.138248      0.100123        11.829934      
119             297.803000      3261.083346     273.345653      0.100321        11.930255      
120             297.743000      3290.933273     273.548964      0.100254        12.030509      
121             297.816000      3320.778903     273.749440      0.100215        12.130724      
122             297.775000      3350.583798     273.946055      0.100092        12.230816      
123             297.815000      3380.397462     274.139834      0.100108        12.330924      
124             297.808000      3410.214595     274.330462      0.100122        12.431046      
125             297.775000      3440.022170     274.517741      0.100101        12.531147      
126             297.848000      3469.842414     274.702664      0.100119        12.631266      
127             297.854000      3499.663557     274.884726      0.100120        12.731386      
128             297.800000      3529.480782     275.063536      0.100125        12.831511      
129             297.927000      3559.333663     275.240694      0.100202        12.931713      
130             297.673000      3589.137874     275.413042      0.100124        13.031837      
131             297.701000      3618.944592     275.582974      0.100123        13.131960      
132             297.682000      3648.747323     275.750179      0.100116        13.232076      
133             297.687000      3678.550852     275.914912      0.100117        13.332193      
134             297.680000      3708.362611     276.077185      0.100147        13.432340      
135             297.714000      3738.174798     276.237292      0.100137        13.532477      
136             297.622000      3767.973605     276.394349      0.100123        13.632600      
137             297.701000      3797.783597     276.549709      0.100134        13.732734      
138             297.774000      3827.627699     276.703486      0.100224        13.832958      
139             297.795000      3857.440552     276.855033      0.100112        13.933070      
140             297.810000      3887.252524     277.004513      0.100104        14.033174      
141             297.816000      3917.070160     277.151942      0.100121        14.133295      
142             297.854000      3946.896961     277.297591      0.100139        14.233434      
143             297.835000      3976.720967     277.441068      0.100136        14.333570      
144             297.883000      4006.549481     277.582885      0.100135        14.433705      
145             297.715000      4036.364447     277.721606      0.100146        14.533851      
146             297.796000      4066.183357     277.858964      0.100132        14.633983      
147             297.755000      4095.989525     277.994137      0.100103        14.734086      
148             297.770000      4125.812680     278.127656      0.100155        14.834241      
149             297.770000      4155.631665     278.259366      0.100141        14.934382      
150             297.939000      4185.467575     278.390447      0.100141        15.034523      
151             297.933000      4215.301394     278.519747      0.100136        15.134659      
152             297.933000      4245.134914     278.647346      0.100135        15.234794      
153             298.072000      4275.001133     278.774266      0.100198        15.334992      
154             298.072000      4304.842313     278.899433      0.100114        15.435106      
155             298.026000      4334.681868     279.022703      0.100124        15.535230      
156             298.173000      4364.541509     279.145358      0.100142        15.635372      
157             298.147000      4394.399142     279.266288      0.100144        15.735516      
158             298.070000      4424.249362     279.385203      0.100145        15.835661      
159             297.759000      4454.067842     279.500667      0.100143        15.935804      
160             297.772000      4483.912040     279.614862      0.100225        16.036029      
161             297.858000      4513.735966     279.728065      0.100128        16.136157      
162             297.833000      4543.559474     279.839724      0.100135        16.236292      
163             297.758000      4573.371898     279.949542      0.100123        16.336415      
164             297.843000      4603.189556     280.058528      0.100112        16.436527      
165             297.827000      4633.010378     280.166114      0.100128        16.536655      
166             297.882000      4662.838196     280.272742      0.100133        16.636788      
167             297.815000      4692.651265     280.377665      0.100106        16.736894      
168             297.953000      4722.485895     280.482188      0.100132        16.837026      
169             298.249000      4752.351058     280.587228      0.100135        16.937161      
170             298.171000      4782.210797     280.690583      0.100143        17.037304      
171             298.209000      4812.093128     280.793016      0.100206        17.137510      
172             298.159000      4841.942123     280.893873      0.100111        17.237621      
173             298.135000      4871.792592     280.993439      0.100124        17.337745      
174             298.115000      4901.651492     281.091781      0.100159        17.437904      
175             298.196000      4931.508069     281.189428      0.100124        17.538028      
176             298.164000      4961.374858     281.285829      0.100169        17.638197      
177             298.102000      4991.220533     281.380743      0.100119        17.738316      
178             298.071000      5021.065786     281.474426      0.100128        17.838444      
179             298.138000      5050.923114     281.567454      0.100146        17.938590      
180             297.854000      5080.743661     281.657847      0.100118        18.038708      
181             297.889000      5110.580521     281.747474      0.100161        18.138869      
182             297.984000      5140.420936     281.836620      0.100141        18.239010      
183             297.991000      5170.260861     281.924828      0.100137        18.339147      
184             297.892000      5200.128109     282.011647      0.100262        18.439409      
185             297.911000      5229.961512     282.097528      0.100142        18.539551      
186             297.948000      5259.793854     282.182672      0.100126        18.639677      
187             297.980000      5289.630889     282.267080      0.100131        18.739808      
188             298.065000      5319.484185     282.351065      0.100157        18.839965      
189             298.111000      5349.354013     282.434438      0.100197        18.940162      
190             298.388000      5379.229216     282.518329      0.100122        19.040284      
191             298.388000      5409.107702     282.601351      0.100133        19.140417      
192             298.379000      5438.986182     282.683465      0.100136        19.240553      
193             298.427000      5468.872750     282.764985      0.100147        19.340700      
194             298.427000      5498.752754     282.845648      0.100125        19.440825      
195             298.546000      5528.642881     282.926090      0.100119        19.540944      
196             298.453000      5558.525786     283.005243      0.100126        19.641070      
197             298.478000      5588.411493     283.083720      0.100127        19.741197      
198             298.334000      5618.284273     283.160683      0.100132        19.841329      
199             298.354000      5648.156669     283.236967      0.100124        19.941453      
200             298.330000      5678.030838     283.312380      0.100138        20.041591      
201             298.332000      5707.903716     283.387049      0.100133        20.141724      
202             298.377000      5737.802583     283.461254      0.100205        20.241929      
203             298.417000      5767.708145     283.534933      0.100214        20.342143      
204             298.219000      5797.566726     283.606853      0.100123        20.442266      
205             298.315000      5827.443868     283.678561      0.100153        20.542419      
206             298.267000      5857.330221     283.749374      0.100200        20.642619      
207             298.332000      5887.193553     283.819747      0.100101        20.742720      
