#timestep       power           acc-energy      avg-power       dt              acc-time       
1               134.527000      13.468978       134.527000      0.100121        0.100121       
2               134.533000      29.128350       134.530226      0.116398        0.216519       
3               134.530000      42.599108       134.530154      0.100132        0.316651       
4               134.524000      56.071014       134.528676      0.100145        0.416796       
5               134.511000      69.540004       134.525252      0.100133        0.516929       
6               134.485000      83.004239       134.518721      0.100117        0.617046       
7               134.438000      96.464306       134.507452      0.100121        0.717167       
8               134.432000      109.925519      134.498207      0.100134        0.817301       
9               134.459000      123.389571      134.493928      0.100135        0.917436       
10              134.407000      136.848013      134.485374      0.100132        1.017568       
11              132.915000      150.163305      134.344628      0.100179        1.117747       
12              132.883000      163.469145      134.224455      0.100132        1.217879       
13              138.454000      177.333375      134.545794      0.100136        1.318015       
14              154.538000      192.813756      135.957921      0.100172        1.418187       
15              169.167000      209.751940      138.147932      0.100127        1.518314       
16              187.966000      228.572224      141.229964      0.100126        1.618440       
17              203.005000      248.898302      144.829062      0.100126        1.718566       
18              218.032000      270.730937      148.859508      0.100135        1.818701       
19              233.045000      294.066898      153.252752      0.100135        1.918836       
20              248.115000      318.911397      157.957550      0.100133        2.018969       
21              266.212000      345.575723      163.074262      0.100162        2.119131       
22              278.281000      373.441948      168.272578      0.100137        2.219268       
23              284.342000      401.917662      173.284141      0.100146        2.319414       
24              283.799000      430.334456      177.857669      0.100130        2.419544       
25              283.543000      458.731571      182.058372      0.100151        2.519695       
26              283.527000      487.120846      185.936477      0.100129        2.619824       
27              283.577000      515.512575      189.530584      0.100120        2.719944       
28              283.619000      543.909644      192.871109      0.100124        2.820068       
29              283.706000      572.317409      195.985756      0.100131        2.920199       
30              283.744000      600.728412      198.895091      0.100129        3.020328       
31              283.319000      629.096860      201.604079      0.100129        3.120457       
32              283.325000      657.466192      204.144832      0.100130        3.220587       
33              283.338000      685.838526      206.532893      0.100136        3.320723       
34              283.349000      714.210262      208.781337      0.100130        3.420853       
35              283.350000      742.583231      210.902009      0.100134        3.520987       
36              283.431000      770.963744      212.907597      0.100132        3.621119       
37              283.476000      799.348762      214.806462      0.100132        3.721251       
38              283.489000      827.733666      216.606069      0.100127        3.821378       
39              283.475000      856.118584      218.313503      0.100132        3.921510       
40              283.858000      884.549234      219.945862      0.100158        4.021668       
41              283.953000      912.982867      221.500850      0.100135        4.121803       
42              283.966000      941.469485      222.985013      0.100317        4.222120       
43              283.966000      969.914359      224.398261      0.100170        4.322290       
44              284.006000      998.342791      225.747445      0.100098        4.422388       
45              284.039000      1026.781912     227.037963      0.100124        4.522512       
46              284.039000      1055.220749     228.272565      0.100123        4.622635       
47              284.029000      1083.658869     229.454619      0.100124        4.722759       
48              284.029000      1112.095852     230.587550      0.100120        4.822879       
49              284.009000      1140.532253     231.674046      0.100125        4.923004       
50              284.055000      1168.974112     232.718175      0.100128        5.023132       
51              284.080000      1197.418191     233.721971      0.100127        5.123259       
52              284.093000      1225.863002     234.687513      0.100125        5.223384       
53              284.101000      1254.301228     235.616650      0.100099        5.323483       
54              284.107000      1282.742612     236.511679      0.100108        5.423591       
55              284.016000      1311.182270     237.372836      0.100134        5.523725       
56              284.018000      1339.622128     238.203363      0.100134        5.623859       
57              284.069000      1368.066809     239.005717      0.100133        5.723992       
58              284.087000      1396.512725     239.780775      0.100131        5.824123       
59              284.097000      1424.961062     240.529839      0.100136        5.924259       
60              284.118000      1453.410650     241.254329      0.100133        6.024392       
61              284.121000      1481.860538     241.955178      0.100133        6.124525       
62              284.080000      1510.306889     242.632833      0.100135        6.224660       
63              284.083000      1538.752688     243.289058      0.100132        6.324792       
64              284.198000      1567.209433     243.926608      0.100130        6.424922       
65              284.261000      1595.673056     244.545571      0.100132        6.525054       
66              284.259000      1624.136478     245.145793      0.100132        6.625186       
67              284.321000      1652.606961     245.729083      0.100135        6.725321       
68              284.341000      1681.081722     246.295596      0.100143        6.825464       
69              284.235000      1709.542173     246.844122      0.100130        6.925594       
70              284.260000      1738.010243     247.377465      0.100148        7.025742       
71              284.282000      1766.472273     247.895977      0.100119        7.125861       
72              284.335000      1794.932784     248.400735      0.100095        7.225956       
73              284.012000      1823.368634     248.887418      0.100122        7.326078       
74              284.025000      1851.809477     249.361212      0.100135        7.426213       
75              284.025000      1880.276451     249.822818      0.100227        7.526440       
76              284.011000      1908.716176     250.271705      0.100136        7.626576       
77              283.976000      1937.160916     250.708632      0.100166        7.726742       
78              283.976000      1965.597137     251.134250      0.100136        7.826878       
79              284.053000      1994.040500     251.550080      0.100134        7.927012       
80              284.066000      2022.485165     251.955697      0.100134        8.027146       
81              284.069000      2050.930130     252.351356      0.100134        8.127280       
82              284.071000      2079.374444     252.737397      0.100131        8.227411       
83              284.086000      2107.815714     253.114276      0.100115        8.327526       
84              284.392000      2136.279087     253.485725      0.100085        8.427611       
85              284.400000      2164.753784     253.848682      0.100122        8.527733       
86              284.274000      2193.244861     254.202108      0.100224        8.627957       
87              284.280000      2221.710670     254.547177      0.100133        8.728090       
88              284.335000      2250.182271     254.885045      0.100134        8.828224       
89              284.312000      2278.650716     255.215067      0.100131        8.928355       
90              284.320000      2307.109726     255.537742      0.100095        9.028450       
91              284.326000      2335.566779     255.853379      0.100086        9.128536       
92              284.333000      2364.031355     256.162318      0.100110        9.228646       
93              284.282000      2392.493669     256.464110      0.100120        9.328766       
94              284.348000      2420.969415     256.760263      0.100144        9.428910       
95              284.378000      2449.443900     257.050464      0.100129        9.529039       
96              284.479000      2477.917972     257.335576      0.100092        9.629131       
97              284.471000      2506.390390     257.614731      0.100089        9.729220       
98              284.502000      2534.878429     257.888635      0.100133        9.829353       
99              284.503000      2563.359739     258.156962      0.100109        9.929462       
100             284.484000      2591.855364     258.419890      0.100166        10.029628      
101             284.535000      2620.346991     258.678041      0.100134        10.129762      
102             284.544000      2648.836106     258.931197      0.100122        10.229884      
103             284.500000      2677.323660     259.179043      0.100132        10.330016      
104             284.495000      2705.809860     259.422075      0.100129        10.430145      
105             284.495000      2734.296629     259.660490      0.100131        10.530276      
106             284.528000      2762.785848     259.894718      0.100128        10.630404      
107             284.528000      2791.269093     260.124526      0.100107        10.730511      
108             284.626000      2819.768979     260.351046      0.100131        10.830642      
109             284.626000      2848.271142     260.573434      0.100139        10.930781      
110             284.639000      2876.771475     260.791878      0.100128        11.030909      
111             284.599000      2905.268373     261.006037      0.100130        11.131039      
112             284.632000      2933.771706     261.216694      0.100141        11.231180      
113             284.662000      2962.276905     261.423884      0.100137        11.331317      
114             284.744000      2990.790315     261.628163      0.100137        11.431454      
115             284.766000      3019.306213     261.829088      0.100138        11.531592      
116             284.795000      3047.826154     262.026810      0.100142        11.631734      
117             284.790000      3076.343031     262.221097      0.100133        11.731867      
118             284.770000      3104.854488     262.411903      0.100121        11.831988      
119             284.779000      3133.371118     262.599611      0.100136        11.932124      
120             284.790000      3161.885147     262.784262      0.100123        12.032247      
121             284.811000      3190.403557     262.966053      0.100131        12.132378      
122             284.812000      3218.921213     263.144871      0.100128        12.232506      
123             284.827000      3247.442365     263.320919      0.100135        12.332641      
124             284.783000      3275.956832     263.493764      0.100127        12.432768      
125             284.791000      3304.489758     263.664015      0.100189        12.532957      
126             284.668000      3332.993849     263.830494      0.100131        12.633088      
127             284.662000      3361.497625     263.994310      0.100132        12.733220      
128             284.662000      3390.002254     264.155574      0.100135        12.833355      
129             284.688000      3418.533970     264.314678      0.100221        12.933576      
130             284.668000      3447.042901     264.471068      0.100148        13.033724      
131             284.668000      3475.547562     264.625050      0.100133        13.133857      
132             284.661000      3504.050098     264.776641      0.100128        13.233985      
133             284.655000      3532.557158     264.925938      0.100146        13.334131      
134             284.705000      3561.063531     265.073352      0.100126        13.434257      
135             284.731000      3589.576208     265.218796      0.100139        13.534396      
136             284.858000      3618.097901     265.363018      0.100126        13.634522      
137             284.878000      3646.626723     265.505308      0.100144        13.734666      
138             284.800000      3675.175075     265.645106      0.100240        13.834906      
139             284.791000      3703.703444     265.782737      0.100173        13.935079      
140             284.799000      3732.226348     265.918432      0.100151        14.035230      
141             284.833000      3760.761488     266.052485      0.100182        14.135412      
142             284.855000      3789.282880     266.184733      0.100126        14.235538      
143             284.871000      3817.805304     266.315243      0.100124        14.335662      
144             284.910000      3846.353286     266.444310      0.100200        14.435862      
145             284.755000      3874.865804     266.570441      0.100130        14.535992      
146             284.739000      3903.374727     266.694729      0.100123        14.636115      
147             284.849000      3931.897512     266.818088      0.100133        14.736248      
148             284.853000      3960.421267     266.939811      0.100135        14.836383      
149             284.866000      3988.950597     267.060006      0.100150        14.936533      
150             284.867000      4017.474899     267.178586      0.100132        15.036665      
151             284.858000      4045.997731     267.295536      0.100130        15.136795      
152             284.844000      4074.516597     267.410846      0.100121        15.236916      
153             284.830000      4103.033492     267.524557      0.100119        15.337035      
154             284.841000      4131.554051     267.636874      0.100128        15.437163      
155             284.823000      4160.076511     267.747642      0.100141        15.537304      
156             284.576000      4188.569399     267.855391      0.100124        15.637428      
157             284.333000      4217.039946     267.960231      0.100131        15.737559      
158             284.134000      4245.501933     268.062527      0.100171        15.837730      
159             283.846000      4273.918040     268.161669      0.100111        15.937841      
160             283.655000      4302.315310     268.258381      0.100112        16.037953      
161             283.655000      4330.726478     268.353940      0.100161        16.138114      
162             283.139000      4359.076620     268.445108      0.100128        16.238242      
163             282.934000      4387.405953     268.533900      0.100127        16.338369      
164             282.717000      4415.711579     268.620284      0.100120        16.438489      
165             282.376000      4443.985605     268.703564      0.100129        16.538618      
166             282.353000      4472.262976     268.785720      0.100149        16.638767      
167             282.376000      4500.538414     268.867019      0.100134        16.738901      
168             282.132000      4528.786598     268.945892      0.100124        16.839025      
169             282.132000      4557.035347     269.023834      0.100126        16.939151      
170             282.148000      4585.286262     269.100956      0.100128        17.039279      
171             282.151000      4613.549892     269.177227      0.100172        17.139451      
172             282.119000      4641.792261     269.252378      0.100108        17.239559      
173             282.165000      4670.044031     269.326940      0.100125        17.339684      
174             282.180000      4698.310002     269.400765      0.100170        17.439854      
175             282.125000      4726.559460     269.473404      0.100131        17.539985      
176             282.395000      4754.830024     269.546736      0.100110        17.640095      
177             282.422000      4783.109786     269.619409      0.100133        17.740228      
178             282.427000      4811.388919     269.691291      0.100129        17.840357      
179             282.635000      4839.688031     269.763530      0.100126        17.940483      
180             282.652000      4867.991672     269.835069      0.100136        18.040619      
181             282.689000      4896.298169     269.906020      0.100133        18.140752      
182             282.677000      4924.604313     269.976128      0.100136        18.240888      
183             282.673000      4952.928713     270.045494      0.100202        18.341090      
184             282.703000      4981.232372     270.114212      0.100118        18.441208      
185             282.733000      5009.560805     270.182402      0.100195        18.541403      
186             282.723000      5037.871556     270.249766      0.100136        18.641539      
187             282.754000      5066.179472     270.316562      0.100115        18.741654      
188             282.747000      5094.494322     270.382628      0.100142        18.841796      
189             282.704000      5122.815609     270.447793      0.100180        18.941976      
190             282.722000      5151.138134     270.512366      0.100178        19.042154      
191             282.730000      5179.447606     270.576274      0.100129        19.142283      
192             282.769000      5207.762114     270.639722      0.100133        19.242416      
193             282.769000      5236.088781     270.702540      0.100176        19.342592      
194             282.806000      5264.405298     270.764871      0.100127        19.442719      
195             282.793000      5292.719664     270.826495      0.100124        19.542843      
196             282.770000      5321.026638     270.887362      0.100106        19.642949      
197             282.809000      5349.351656     270.947840      0.100156        19.743105      
198             282.803000      5377.667589     271.007659      0.100126        19.843231      
199             282.829000      5405.988105     271.067013      0.100133        19.943364      
200             282.851000      5434.311390     271.125884      0.100135        20.043499      
201             282.848000      5462.634092     271.184155      0.100134        20.143633      
202             282.815000      5490.953206     271.241685      0.100133        20.243766      
203             282.823000      5519.271990     271.298686      0.100129        20.343895      
204             282.823000      5547.600391     271.355148      0.100163        20.444058      
205             282.779000      5575.917031     271.410831      0.100137        20.544195      
206             282.785000      5604.233142     271.466000      0.100133        20.644328      
207             282.785000      5632.553777     271.520645      0.100149        20.744477      
