#timestep       power           acc-energy      avg-power       dt              acc-time       
1               135.558000      13.575049       135.558000      0.100142        0.100142       
2               135.496000      29.693247       135.524338      0.118957        0.219099       
3               135.483000      43.258482       135.511372      0.100125        0.319224       
4               135.485000      56.823376       135.505076      0.100121        0.419345       
5               135.445000      70.386974       135.493495      0.100141        0.519486       
6               135.418000      83.945295       135.481296      0.100122        0.619608       
7               135.369000      97.498710       135.465674      0.100122        0.719730       
8               135.430000      111.058232      135.461318      0.100122        0.819852       
9               135.374000      124.612012      135.451815      0.100121        0.919973       
10              135.383000      138.169401      135.445060      0.100141        1.020114       
11              132.942000      151.480884      135.221330      0.100130        1.120244       
12              132.814000      164.779948      135.023807      0.100133        1.220377       
13              142.601000      179.058444      135.598357      0.100129        1.320506       
14              175.313000      196.615164      138.397935      0.100145        1.420651       
15              202.444000      216.884262      142.614488      0.100122        1.520773       
16              229.920000      239.910750      148.008727      0.100150        1.620923       
17              257.530000      265.696972      154.380560      0.100129        1.721052       
18              285.244000      294.258168      161.575466      0.100129        1.821181       
19              312.784000      325.573164      169.454798      0.100117        1.921298       
20              340.131000      359.636603      177.910567      0.100148        2.021446       
21              373.146000      396.998593      187.124644      0.100127        2.121573       
22              400.708000      437.117478      196.749721      0.100120        2.221693       
23              407.272000      477.906583      205.830528      0.100152        2.321845       
24              407.309000      518.686767      214.159393      0.100121        2.421966       
25              407.251000      559.465217      221.825416      0.100131        2.522097       
26              407.221000      600.235777      228.904017      0.100119        2.622216       
27              406.968000      640.980192      235.452530      0.100117        2.722333       
28              406.705000      681.692989      241.526379      0.100104        2.822437       
29              406.897000      722.429075      247.191264      0.100114        2.922551       
30              406.938000      763.174557      252.482916      0.100127        3.022678       
31              406.938000      803.920445      257.435282      0.100128        3.122806       
32              407.028000      844.684706      262.083765      0.100151        3.222957       
33              406.991000      885.425726      266.448913      0.100103        3.323060       
34              407.153000      926.188256      270.564019      0.100116        3.423176       
35              407.198000      966.968321      274.447743      0.100148        3.523324       
36              407.177000      1007.737732     278.115457      0.100127        3.623451       
37              407.157000      1048.523463     281.586902      0.100172        3.723623       
38              407.239000      1089.301934     284.877395      0.100134        3.823757       
39              407.257000      1130.080984     288.000316      0.100131        3.923888       
40              406.547000      1170.790161     290.950239      0.100134        4.024022       
41              406.119000      1211.462979     293.746958      0.100150        4.124172       
42              405.711000      1252.086416     296.400852      0.100129        4.224301       
43              405.560000      1292.725556     298.930226      0.100205        4.324506       
44              405.486000      1333.324436     301.341454      0.100124        4.424630       
45              404.961000      1373.879255     303.634823      0.100145        4.524775       
46              404.657000      1414.395133     305.821842      0.100124        4.624899       
47              404.292000      1454.882955     307.908869      0.100145        4.725044       
48              403.695000      1495.293228     309.896019      0.100101        4.825145       
49              403.434000      1535.682620     311.797333      0.100114        4.925259       
50              403.786000      1576.129056     313.630873      0.100168        5.025427       
51              403.866000      1616.579467     315.394139      0.100158        5.125585       
52              403.923000      1657.025085     317.090475      0.100132        5.225717       
53              403.892000      1697.474868     318.722730      0.100150        5.325867       
54              403.884000      1737.916177     320.294290      0.100131        5.425998       
55              403.897000      1778.356364     321.809045      0.100125        5.526123       
56              403.890000      1818.799082     323.269876      0.100133        5.626256       
57              403.963000      1859.249917     324.680923      0.100135        5.726391       
58              404.017000      1899.706563     326.044411      0.100136        5.826527       
59              404.140000      1940.174314     327.363863      0.100133        5.926660       
60              404.093000      1980.638166     328.638715      0.100135        6.026795       
61              404.124000      2021.104315     329.872379      0.100133        6.126928       
62              404.117000      2061.561276     331.066008      0.100112        6.227040       
63              404.098000      2102.026841     332.221860      0.100138        6.327178       
64              404.503000      2142.531345     333.347960      0.100134        6.427312       
65              404.501000      2183.034839     334.439459      0.100132        6.527444       
66              404.489000      2223.539963     335.497867      0.100139        6.627583       
67              404.541000      2264.045440     336.525421      0.100127        6.727710       
68              404.475000      2304.552802     337.522075      0.100148        6.827858       
69              404.443000      2345.040377     338.489062      0.100107        6.927965       
70              404.541000      2385.537763     339.429898      0.100107        7.028072       
71              404.504000      2426.023355     340.343608      0.100087        7.128159       
72              404.584000      2466.518977     341.233166      0.100092        7.228251       
73              404.652000      2507.059442     342.100156      0.100186        7.328437       
74              404.456000      2547.549128     342.940480      0.100109        7.428546       
75              404.456000      2588.038813     343.758455      0.100109        7.528655       
76              404.443000      2628.524771     344.554745      0.100103        7.628758       
77              404.551000      2669.024776     345.331869      0.100111        7.728869       
78              404.483000      2709.532535     346.088517      0.100147        7.829016       
79              404.613000      2750.097012     346.828480      0.100255        7.929271       
80              404.613000      2790.614553     347.549142      0.100139        8.029410       
81              404.641000      2831.134493     348.252387      0.100138        8.129548       
82              404.626000      2871.652527     348.938328      0.100137        8.229685       
83              404.614000      2912.178665     349.607786      0.100160        8.329845       
84              404.510000      2952.715017     350.260427      0.100211        8.430056       
85              404.906000      2993.312512     350.902723      0.100264        8.530320       
86              405.020000      3033.878100     351.530755      0.100157        8.630477       
87              404.953000      3074.414705     352.143278      0.100102        8.730579       
88              405.099000      3114.965925     352.743568      0.100102        8.830681       
89              405.031000      3155.512364     353.329669      0.100107        8.930788       
90              404.932000      3196.046867     353.901649      0.100102        9.030890       
91              405.014000      3236.600919     354.462143      0.100130        9.131020       
92              405.056000      3277.221149     355.011763      0.100283        9.231303       
93              405.021000      3317.777117     355.548398      0.100133        9.331436       
94              405.127000      3358.344509     356.074774      0.100135        9.431571       
95              404.911000      3398.889463     356.587811      0.100133        9.531704       
96              405.005000      3439.441398     357.091128      0.100127        9.631831       
97              404.924000      3479.984819     357.583251      0.100126        9.731957       
98              404.870000      3520.522427     358.064795      0.100125        9.832082       
99              404.920000      3561.055729     358.537028      0.100102        9.932184       
100             405.028000      3601.605512     359.000978      0.100116        10.032300      
101             405.002000      3642.162413     359.455611      0.100140        10.132440      
102             405.123000      3682.729809     359.902512      0.100136        10.232576      
103             405.227000      3723.312078     360.341807      0.100147        10.332723      
104             405.233000      3763.889679     360.772670      0.100134        10.432857      
105             405.683000      3804.513152     361.199628      0.100136        10.532993      
106             406.030000      3845.178275     361.621883      0.100153        10.633146      
107             406.114000      3885.840845     362.036930      0.100126        10.733272      
108             406.238000      3926.517050     362.445464      0.100129        10.833401      
109             406.341000      3967.203974     362.847462      0.100130        10.933531      
110             406.284000      4007.885191     363.241647      0.100130        11.033661      
111             406.284000      4048.563970     363.628718      0.100124        11.133785      
112             406.504000      4089.268435     364.010885      0.100133        11.233918      
113             406.474000      4129.970303     364.386038      0.100134        11.334052      
114             406.540000      4170.677153     364.755183      0.100130        11.434182      
115             406.493000      4211.374825     365.117472      0.100119        11.534301      
116             406.436000      4252.068011     365.473046      0.100122        11.634423      
117             406.435000      4292.777760     365.822685      0.100163        11.734586      
118             406.435000      4333.473283     366.166287      0.100128        11.834714      
119             406.351000      4374.160396     366.503419      0.100128        11.934842      
120             406.457000      4414.859342     366.835833      0.100131        12.034973      
121             406.521000      4455.564696     367.163289      0.100131        12.135104      
122             406.451000      4496.258164     367.484774      0.100119        12.235223      
123             406.455000      4536.956503     367.801108      0.100130        12.335353      
124             406.435000      4577.658530     368.112230      0.100144        12.435497      
125             406.306000      4618.342762     368.417314      0.100132        12.535629      
126             406.493000      4659.044500     368.719035      0.100129        12.635758      
127             406.851000      4699.784932     369.018848      0.100136        12.735894      
128             406.794000      4740.514774     369.313503      0.100124        12.836018      
129             406.792000      4781.277773     369.603817      0.100206        12.936224      
130             406.867000      4822.016959     369.890027      0.100129        13.036353      
131             406.717000      4862.742346     370.170738      0.100132        13.136485      
132             406.743000      4903.469929     370.447396      0.100131        13.236616      
133             406.782000      4944.200197     370.720185      0.100128        13.336744      
134             406.781000      4984.936873     370.988943      0.100144        13.436888      
135             406.879000      5025.690688     371.254497      0.100162        13.537050      
136             406.692000      5066.422112     371.514754      0.100153        13.637203      
137             406.713000      5107.149131     371.771328      0.100137        13.737340      
138             406.702000      5147.866102     372.024054      0.100115        13.837455      
139             406.670000      5188.578649     372.272912      0.100112        13.937567      
140             406.726000      5229.304124     372.518663      0.100130        14.037697      
141             406.792000      5270.039054     372.761418      0.100137        14.137834      
142             406.820000      5310.763363     373.000877      0.100104        14.237938      
143             406.820000      5351.484418     373.236974      0.100096        14.338034      
144             406.786000      5392.209392     373.469602      0.100114        14.438148      
145             406.786000      5432.930297     373.699004      0.100104        14.538252      
146             406.870000      5473.672225     373.925913      0.100135        14.638387      
147             406.870000      5514.402760     374.149676      0.100107        14.738494      
148             407.113000      5555.161285     374.372080      0.100116        14.838610      
149             407.003000      5595.903506     374.590737      0.100103        14.938713      
150             407.029000      5636.653215     374.806681      0.100115        15.038828      
151             407.067000      5677.401843     375.019996      0.100103        15.138931      
152             406.882000      5718.134393     375.229305      0.100109        15.239040      
153             406.886000      5758.868971     375.435917      0.100113        15.339153      
154             407.019000      5799.611980     375.640687      0.100101        15.439254      
155             407.017000      5840.356010     375.842812      0.100104        15.539358      
156             407.022000      5881.096470     376.042362      0.100094        15.639452      
157             406.887000      5921.828707     376.238541      0.100107        15.739559      
158             406.986000      5962.569633     376.432859      0.100104        15.839663      
159             407.007000      6003.311848     376.624865      0.100102        15.939765      
160             406.910000      6044.044353     376.813870      0.100102        16.039867      
161             406.953000      6084.779534     377.000789      0.100098        16.139965      
162             407.053000      6125.579270     377.186266      0.100232        16.240197      
163             407.053000      6166.338708     377.369289      0.100133        16.340330      
164             407.037000      6207.092474     377.549966      0.100123        16.440453      
165             407.041000      6247.849489     377.728493      0.100130        16.540583      
166             407.002000      6288.605449     377.904649      0.100137        16.640720      
167             407.157000      6329.376929     378.079625      0.100137        16.740857      
168             407.470000      6370.186272     378.254408      0.100153        16.841010      
169             407.383000      6410.977939     378.426573      0.100131        16.941141      
170             407.358000      6451.760585     378.596542      0.100115        17.041256      
171             407.406000      6492.582666     378.764947      0.100200        17.141456      
172             407.226000      6533.356577     378.930227      0.100126        17.241582      
173             407.232000      6574.131088     379.093633      0.100126        17.341708      
174             407.308000      6614.911987     379.255595      0.100123        17.441831      
175             407.268000      6655.679514     379.415443      0.100100        17.541931      
176             407.261000      6696.455300     379.573471      0.100122        17.642053      
177             407.243000      6737.231727     379.729624      0.100128        17.742181      
178             407.172000      6778.001045     379.883626      0.100128        17.842309      
179             407.172000      6818.771177     380.035912      0.100130        17.942439      
180             407.140000      6859.537291     380.186328      0.100128        18.042567      
181             407.174000      6900.306809     380.335270      0.100128        18.142695      
182             407.174000      6941.075513     380.482575      0.100126        18.242821      
183             407.255000      6981.852327     380.628714      0.100126        18.342947      
184             407.247000      7022.628341     380.773223      0.100126        18.443073      
185             407.247000      7063.403132     380.916166      0.100123        18.543196      
186             407.239000      7104.169385     381.057505      0.100104        18.643300      
187             407.205000      7144.946486     381.197201      0.100139        18.743439      
188             407.358000      7185.722207     381.336169      0.100098        18.843537      
189             407.685000      7226.536776     381.475417      0.100113        18.943650      
190             407.529000      7267.331651     381.612367      0.100103        19.043753      
191             407.516000      7308.134598     381.747847      0.100126        19.143879      
192             407.572000      7348.943152     381.882210      0.100126        19.244005      
193             407.413000      7389.735379     382.014357      0.100125        19.344130      
194             407.381000      7430.524809     382.144979      0.100126        19.444256      
195             407.448000      7471.319725     382.274603      0.100123        19.544379      
196             407.409000      7512.112366     382.402712      0.100127        19.644506      
197             407.422000      7552.905494     382.529585      0.100125        19.744631      
198             407.356000      7593.692828     382.654847      0.100127        19.844758      
199             407.187000      7634.462834     382.778001      0.100126        19.944884      
200             407.244000      7675.236917     382.900206      0.100122        20.045006      
201             407.302000      7716.035951     383.021540      0.100169        20.145175      
202             407.267000      7756.816818     383.141458      0.100133        20.245308      
203             407.293000      7797.604768     383.260336      0.100144        20.345452      
204             407.355000      7838.394854     383.378342      0.100134        20.445586      
205             407.330000      7879.182843     383.495076      0.100135        20.545721      
206             407.219000      7919.958089     383.610136      0.100131        20.645852      
207             407.135000      7960.721666     383.723670      0.100123        20.745975      
