#timestep       power           acc-energy      avg-power       dt              acc-time       
1               137.287000      13.745998       137.287000      0.100126        0.100126       
2               137.274000      28.993159       137.280163      0.111071        0.211197       
3               137.219000      42.738386       137.260486      0.100170        0.311367       
4               137.176000      56.469978       137.239933      0.100102        0.411469       
5               137.042000      70.192404       137.201192      0.100133        0.511602       
6               137.066000      83.918605       137.179061      0.100143        0.611745       
7               137.067000      97.642575       137.163300      0.100126        0.711871       
8               137.009000      111.365123      137.144268      0.100158        0.812029       
9               137.005000      125.083296      137.128980      0.100129        0.912158       
10              137.028000      138.802814      137.118993      0.100122        1.012280       
11              133.544000      152.173907      136.797216      0.100125        1.112405       
12              133.497000      165.540160      136.524702      0.100124        1.212529       
13              146.397000      180.198892      137.277764      0.100130        1.312659       
14              171.971000      197.418864      139.736680      0.100133        1.412792       
15              199.111000      217.356048      143.666299      0.100131        1.512923       
16              227.657000      240.150888      148.879910      0.100128        1.613051       
17              253.013000      265.484320      154.965987      0.100127        1.713178       
18              275.585000      293.079473      161.626700      0.100133        1.813311       
19              303.575000      323.489492      169.057850      0.100173        1.913484       
20              325.313000      356.063082      176.827874      0.100130        2.013614       
21              354.369000      391.547468      185.238481      0.100134        2.113748       
22              384.949000      430.094336      194.271484      0.100135        2.213883       
23              387.169000      468.862342      202.618541      0.100132        2.314015       
24              387.150000      507.624575      210.271652      0.100122        2.414137       
25              387.150000      546.381387      217.314298      0.100108        2.514245       
26              387.263000      585.155320      223.822859      0.100123        2.614368       
27              387.418000      623.948259      229.857528      0.100132        2.714500       
28              387.473000      662.746706      235.464780      0.100132        2.814632       
29              387.688000      701.567456      240.694264      0.100134        2.914766       
30              387.688000      740.385880      245.576090      0.100128        3.014894       
31              387.660000      779.201888      250.143221      0.100129        3.115023       
32              387.822000      818.025973      254.430060      0.100108        3.215131       
33              387.739000      856.844463      258.455772      0.100115        3.315246       
34              387.751000      895.659501      262.245381      0.100103        3.415349       
35              387.938000      934.499854      265.825087      0.100120        3.515469       
36              387.909000      973.342346      269.206164      0.100133        3.615602       
37              388.059000      1012.199858     272.409054      0.100133        3.715735       
38              388.153000      1051.057466     275.445607      0.100109        3.815844       
39              388.052000      1089.908844     278.324602      0.100119        3.915963       
40              388.206000      1128.781464     281.064293      0.100134        4.016097       
41              388.150000      1167.638772     283.668692      0.100109        4.116206       
42              388.169000      1206.503417     286.150207      0.100123        4.216329       
43              388.351000      1245.456187     288.524986      0.100303        4.316632       
44              388.320000      1284.340222     290.787473      0.100134        4.416766       
45              388.406000      1323.232480     292.951532      0.100133        4.516899       
46              388.064000      1362.091269     295.014347      0.100135        4.617034       
47              387.763000      1400.919529     296.983175      0.100134        4.717168       
48              388.051000      1439.785941     298.876585      0.100158        4.817326       
49              387.952000      1478.630411     300.690299      0.100127        4.917453       
50              387.925000      1517.471014     302.431037      0.100124        5.017577       
51              388.187000      1556.339014     304.108837      0.100127        5.117704       
52              387.642000      1595.153995     305.711851      0.100131        5.217835       
53              387.377000      1633.943603     307.249554      0.100134        5.317969       
54              387.549000      1672.749660     308.733569      0.100132        5.418101       
55              387.482000      1711.549782     310.162540      0.100134        5.518235       
56              388.300000      1750.431426     311.555140      0.100133        5.618368       
57              388.450000      1789.328867     312.901623      0.100135        5.718503       
58              388.411000      1828.223179     314.201116      0.100137        5.818640       
59              388.658000      1867.141448     315.460792      0.100135        5.918775       
60              388.496000      1906.043107     316.675847      0.100134        6.018909       
61              388.504000      1944.946732     317.851301      0.100137        6.119046       
62              389.123000      1983.911952     318.998857      0.100136        6.219182       
63              389.116000      2022.864020     320.109585      0.100104        6.319286       
64              389.230000      2061.830614     321.187534      0.100112        6.419398       
65              389.143000      2100.797059     322.231267      0.100134        6.519532       
66              389.058000      2139.754215     323.242118      0.100132        6.619664       
67              389.058000      2178.700088     324.222564      0.100103        6.719767       
68              389.232000      2217.665714     325.176838      0.100109        6.819876       
69              389.148000      2256.629158     326.102432      0.100125        6.920001       
70              389.292000      2295.609744     327.003740      0.100132        7.020133       
71              389.357000      2334.596061     327.880594      0.100130        7.120263       
72              389.234000      2373.571618     328.731456      0.100134        7.220397       
73              389.546000      2412.578417     329.563309      0.100134        7.320531       
74              389.578000      2451.620756     330.373805      0.100217        7.420748       
75              389.448000      2490.650455     331.160978      0.100218        7.520966       
76              389.674000      2529.671241     331.929806      0.100137        7.621103       
77              389.478000      2568.678631     332.676268      0.100153        7.721256       
78              389.233000      2607.650196     333.400269      0.100124        7.821380       
79              388.884000      2646.599650     334.101785      0.100157        7.921537       
80              388.427000      2685.491681     334.779876      0.100127        8.021664       
81              388.204000      2724.361383     335.438499      0.100127        8.121791       
82              388.220000      2763.231522     336.081256      0.100124        8.221915       
83              388.209000      2802.112206     336.708600      0.100154        8.322069       
84              387.863000      2840.945825     337.316718      0.100122        8.422191       
85              387.594000      2879.752899     337.907392      0.100123        8.522314       
86              387.586000      2918.586691     338.484660      0.100194        8.622508       
87              387.656000      2957.399585     339.049070      0.100122        8.722630       
88              387.509000      2996.197374     339.598995      0.100121        8.822751       
89              387.498000      3034.994448     340.136461      0.100122        8.922873       
90              388.107000      3073.853662     340.668773      0.100125        9.022998       
91              388.207000      3112.723664     341.190509      0.100127        9.123125       
92              387.938000      3151.568284     341.698017      0.100131        9.223256       
93              387.580000      3190.375119     342.190754      0.100126        9.323382       
94              387.463000      3229.173339     342.671816      0.100134        9.423516       
95              387.673000      3267.992200     343.144965      0.100133        9.523649       
96              387.709000      3306.815053     343.608647      0.100134        9.623783       
97              387.685000      3345.634727     344.062523      0.100132        9.723915       
98              387.700000      3384.455903     344.507300      0.100132        9.824047       
99              387.619000      3423.267419     344.942267      0.100128        9.924175       
100             387.761000      3462.092764     345.369958      0.100127        10.024302      
101             387.482000      3500.891337     345.786444      0.100130        10.124432      
102             387.341000      3539.676179     346.193395      0.100131        10.224563      
103             387.600000      3578.486954     346.594965      0.100131        10.324694      
104             388.135000      3617.351300     346.993959      0.100131        10.424825      
105             388.197000      3656.220689     347.385940      0.100128        10.524953      
106             388.229000      3695.202375     347.771904      0.100409        10.625362      
107             388.229000      3734.208131     348.150874      0.100471        10.725833      
108             388.263000      3773.085681     348.521881      0.100132        10.825965      
109             388.263000      3811.960514     348.886062      0.100125        10.926090      
110             388.314000      3850.844337     349.244128      0.100135        11.026225      
111             388.529000      3889.742695     349.597621      0.100117        11.126342      
112             388.414000      3928.632646     349.943811      0.100125        11.226467      
113             388.495000      3967.531485     350.284603      0.100127        11.326594      
114             388.513000      4006.434846     350.619604      0.100134        11.426728      
115             388.520000      4045.337742     350.948835      0.100131        11.526859      
116             388.574000      4084.245268     351.272855      0.100129        11.626988      
117             388.574000      4123.160954     351.591407      0.100150        11.727138      
118             388.573000      4162.083146     351.904609      0.100167        11.827305      
119             388.580000      4200.991661     352.212497      0.100130        11.927435      
120             388.662000      4239.925100     352.516070      0.100173        12.027608      
121             388.482000      4278.825356     352.813026      0.100134        12.127742      
122             388.534000      4317.728877     353.105531      0.100129        12.227871      
123             388.594000      4356.636852     353.393759      0.100125        12.327996      
124             388.497000      4395.537833     353.676582      0.100132        12.428128      
125             388.566000      4434.444947     353.955430      0.100130        12.528258      
126             388.327000      4473.353371     354.228136      0.100195        12.628453      
127             388.202000      4512.236847     354.495481      0.100163        12.728616      
128             388.746000      4551.151488     354.762739      0.100103        12.828719      
129             389.008000      4590.122310     355.028089      0.100180        12.928899      
130             388.663000      4629.039136     355.286579      0.100130        13.029029      
131             388.473000      4667.944318     355.539724      0.100149        13.129178      
132             388.871000      4706.876139     355.791964      0.100115        13.229293      
133             389.241000      4745.843444     356.043184      0.100111        13.329404      
134             389.360000      4784.834344     356.291620      0.100141        13.429545      
135             389.279000      4823.815186     356.535767      0.100136        13.529681      
136             389.139000      4862.781231     356.775292      0.100134        13.629815      
137             388.878000      4901.723085     357.009432      0.100139        13.729954      
138             388.892000      4940.680341     357.240366      0.100175        13.830129      
139             389.023000      4979.671338     357.469040      0.100228        13.930357      
140             389.013000      5018.630601     357.694199      0.100149        14.030506      
141             389.129000      5057.597201     357.916964      0.100138        14.130644      
142             388.962000      5096.547466     358.135421      0.100139        14.230783      
143             388.853000      5135.482540     358.350041      0.100128        14.330911      
144             388.275000      5174.363622     358.557692      0.100138        14.431049      
145             388.209000      5213.245470     358.762065      0.100157        14.531206      
146             388.195000      5252.122423     358.963526      0.100148        14.631354      
147             388.287000      5290.998494     359.162822      0.100122        14.731476      
148             388.215000      5329.872792     359.358969      0.100136        14.831612      
149             388.186000      5368.742632     359.552282      0.100132        14.931744      
150             388.305000      5407.619340     359.743788      0.100119        15.031863      
151             388.170000      5446.486026     359.931884      0.100128        15.131991      
152             387.800000      5485.317604     360.115083      0.100133        15.232124      
153             387.688000      5524.137578     360.295157      0.100132        15.332256      
154             387.635000      5562.952246     360.472549      0.100132        15.432388      
155             387.974000      5601.800471     360.649839      0.100131        15.532519      
156             388.432000      5640.694167     360.827788      0.100130        15.632649      
157             388.492000      5679.614849     361.003949      0.100184        15.732833      
158             388.447000      5718.510048     361.177503      0.100130        15.832963      
159             388.628000      5757.430365     361.350044      0.100148        15.933111      
160             388.628000      5796.356511     361.520455      0.100163        16.033274      
161             389.203000      5835.346478     361.692347      0.100179        16.133453      
162             389.231000      5874.315118     361.862185      0.100117        16.233570      
163             389.231000      5913.283369     362.029940      0.100116        16.333686      
164             389.669000      5952.294302     362.198315      0.100113        16.433799      
165             390.023000      5991.336384     362.366775      0.100102        16.533901      
166             389.696000      6030.350020     362.531258      0.100113        16.634014      
167             389.395000      6069.339362     362.691996      0.100128        16.734142      
168             389.422000      6108.336081     362.851001      0.100140        16.834282      
169             389.396000      6147.326692     363.007959      0.100131        16.934413      
170             389.014000      6186.278664     363.160824      0.100130        17.034543      
171             388.549000      6225.212828     363.309294      0.100204        17.134747      
172             389.181000      6264.180354     363.459597      0.100127        17.234874      
173             389.349000      6303.190398     363.609232      0.100193        17.335067      
174             389.010000      6342.143137     363.755112      0.100133        17.435200      
175             388.749000      6381.069352     363.897835      0.100132        17.535332      
176             389.192000      6420.037201     364.041442      0.100125        17.635457      
177             389.466000      6459.032873     364.184976      0.100126        17.735583      
178             389.023000      6497.984579     364.324413      0.100127        17.835710      
179             388.742000      6536.907761     364.460723      0.100126        17.935836      
180             389.532000      6575.917053     364.599930      0.100144        18.035980      
181             389.485000      6614.915797     364.737320      0.100129        18.136109      
182             388.795000      6653.847007     364.869418      0.100133        18.236242      
183             388.767000      6692.774246     364.999916      0.100130        18.336372      
184             389.392000      6731.757058     365.132368      0.100112        18.436484      
185             389.633000      6770.765556     365.264696      0.100116        18.536600      
186             388.908000      6809.708080     365.391728      0.100133        18.636733      
187             388.801000      6848.638336     365.516826      0.100129        18.736862      
188             389.562000      6887.650243     365.644658      0.100143        18.837005      
189             389.646000      6926.667056     365.771570      0.100134        18.937139      
190             389.656000      6965.683311     365.897194      0.100130        19.037269      
191             389.750000      7004.706250     366.021987      0.100123        19.137392      
192             390.320000      7043.786259     366.148448      0.100123        19.237515      
193             390.422000      7082.876091     366.274126      0.100122        19.337637      
194             390.394000      7121.964681     366.398370      0.100126        19.437763      
195             390.335000      7161.053999     366.521059      0.100143        19.537906      
196             390.567000      7200.157957     366.643653      0.100121        19.638027      
197             390.457000      7239.251293     366.764446      0.100122        19.738149      
198             390.452000      7278.344909     366.883998      0.100124        19.838273      
199             390.505000      7317.448908     367.002630      0.100137        19.938410      
200             390.467000      7356.544807     367.119874      0.100126        20.038536      
201             390.549000      7395.650088     367.236363      0.100129        20.138665      
202             390.549000      7434.746777     367.351674      0.100107        20.238772      
203             390.445000      7473.836568     367.465349      0.100116        20.338888      
204             390.510000      7512.939115     367.578246      0.100132        20.439020      
205             390.529000      7552.044346     367.690137      0.100134        20.539154      
206             390.830000      7591.178936     367.802401      0.100132        20.639286      
207             391.190000      7630.345270     367.915306      0.100121        20.739407      
