#timestep       power           acc-energy      avg-power       dt              acc-time       
1               136.228000      13.649501       136.228000      0.100196        0.100196       
2               136.180000      28.616227       136.202891      0.109904        0.210100       
3               136.148000      42.248454       136.185175      0.100128        0.310228       
4               136.168000      55.893305       136.180981      0.100206        0.410434       
5               136.126000      69.522648       136.170199      0.100123        0.510557       
6               136.187000      83.159325       136.172954      0.100132        0.610689       
7               136.200000      96.794580       136.176763      0.100112        0.710801       
8               136.161000      110.428108      136.174817      0.100128        0.810929       
9               136.214000      124.066944      136.179123      0.100128        0.911057       
10              136.222000      137.708896      136.183370      0.100145        1.011202       
11              133.585000      151.082224      135.949299      0.100111        1.111313       
12              133.603000      164.457086      135.755407      0.100109        1.211422       
13              145.925000      179.068994      136.531822      0.100133        1.311555       
14              168.198000      195.911165      138.777949      0.100133        1.411688       
15              190.177000      214.949594      142.181519      0.100109        1.511797       
16              219.377000      236.913400      146.976269      0.100119        1.611916       
17              243.124000      261.257163      152.599472      0.100129        1.712045       
18              260.897000      287.382084      158.583631      0.100135        1.812180       
19              282.938000      315.713515      165.095105      0.100133        1.912313       
20              305.148000      346.270425      172.064028      0.100138        2.012451       
21              331.678000      379.511526      179.635801      0.100221        2.112672       
22              353.863000      414.980984      187.527530      0.100235        2.212907       
23              354.811000      450.506790      194.768855      0.100126        2.313033       
24              354.811000      486.035435      201.409780      0.100134        2.413167       
25              354.852000      521.566056      207.522816      0.100128        2.513295       
26              354.995000      557.112415      213.173131      0.100132        2.613427       
27              355.126000      592.671537      218.411229      0.100131        2.713558       
28              355.126000      628.231723      223.276650      0.100134        2.813692       
29              355.194000      663.796943      227.809788      0.100129        2.913821       
30              355.214000      699.365232      232.042514      0.100132        3.013953       
31              355.270000      734.936640      236.004570      0.100125        3.114078       
32              355.332000      770.512480      239.721536      0.100120        3.214198       
33              355.399000      806.086499      243.215146      0.100096        3.314294       
34              355.495000      841.677236      246.507372      0.100116        3.414410       
35              355.496000      877.288337      249.613777      0.100173        3.514583       
36              355.585000      912.891641      252.549138      0.100126        3.614709       
37              355.661000      948.503621      255.328394      0.100129        3.714838       
38              355.751000      984.130660      257.964558      0.100146        3.814984       
39              355.755000      1019.754187     260.465694      0.100135        3.915119       
40              355.983000      1055.399833     262.847720      0.100133        4.015252       
41              356.051000      1091.053000     265.115529      0.100135        4.115387       
42              356.094000      1126.707980     267.276473      0.100128        4.215515       
43              356.101000      1162.394286     269.339035      0.100214        4.315729       
44              356.220000      1198.062594     271.309069      0.100130        4.415859       
45              356.246000      1233.733863     273.192337      0.100131        4.515990       
46              356.366000      1269.422492     274.996770      0.100146        4.616136       
47              356.405000      1305.107899     276.725063      0.100126        4.716262       
48              356.369000      1340.790058     278.380766      0.100127        4.816389       
49              356.404000      1376.495323     279.970598      0.100182        4.916571       
50              356.462000      1412.189289     281.497375      0.100134        5.016705       
51              356.495000      1447.884777     282.964970      0.100129        5.116834       
52              354.972000      1483.430608     284.347106      0.100137        5.216971       
53              354.813000      1518.960872     285.674202      0.100138        5.317109       
54              354.900000      1554.501623     286.953906      0.100143        5.417252       
55              354.987000      1590.048601     288.188650      0.100136        5.517388       
56              355.040000      1625.601242     289.380331      0.100137        5.617525       
57              355.107000      1661.159526     290.531409      0.100134        5.717659       
58              355.077000      1696.719423     291.642489      0.100147        5.817806       
59              355.201000      1732.277884     292.717651      0.100108        5.917914       
60              355.223000      1767.859507     293.758011      0.100167        6.018081       
61              355.231000      1803.427721     294.764042      0.100127        6.118208       
62              356.988000      1839.169716     295.765907      0.100121        6.218329       
63              357.170000      1874.930291     296.738915      0.100122        6.318451       
64              357.264000      1910.708852     297.683256      0.100146        6.418597       
65              357.353000      1946.503472     298.600129      0.100166        6.518763       
66              357.405000      1982.291150     299.489741      0.100132        6.618895       
67              357.405000      2018.100271     300.353347      0.100192        6.719087       
68              357.609000      2053.900508     301.193895      0.100110        6.819197       
69              357.609000      2089.711474     302.010362      0.100140        6.919337       
70              357.761000      2125.534083     302.805624      0.100130        7.019467       
71              357.761000      2161.361700     303.578623      0.100144        7.119611       
72              357.928000      2197.205326     304.332479      0.100142        7.219753       
73              357.991000      2233.057409     305.066613      0.100148        7.319901       
74              358.064000      2268.907851     305.781740      0.100123        7.420024       
75              358.099000      2304.771465     306.478476      0.100150        7.520174       
76              358.160000      2340.632594     307.157539      0.100126        7.620300       
77              358.215000      2376.497079     307.819663      0.100120        7.720420       
78              358.285000      2412.359975     308.465576      0.100096        7.820516       
79              358.295000      2448.232470     309.095440      0.100120        7.920636       
80              358.342000      2484.111105     309.710190      0.100124        8.020760       
81              358.348000      2519.993565     310.309909      0.100133        8.120893       
82              358.061000      2555.848719     310.891545      0.100137        8.221030       
83              357.928000      2591.691271     311.457593      0.100139        8.321169       
84              358.041000      2627.549793     312.011595      0.100152        8.421321       
85              358.066000      2663.402584     312.552744      0.100129        8.521450       
86              357.527000      2699.235012     313.075550      0.100223        8.621673       
87              357.461000      2735.028297     313.585123      0.100132        8.721805       
88              357.731000      2770.839675     314.086071      0.100107        8.821912       
89              357.835000      2806.668977     314.577045      0.100128        8.922040       
90              357.405000      2842.455583     315.052354      0.100129        9.022169       
91              357.411000      2878.243146     315.517300      0.100130        9.122299       
92              358.048000      2914.094492     315.979065      0.100130        9.222429       
93              358.196000      2949.960300     316.432496      0.100129        9.322558       
94              358.296000      2985.836836     316.877362      0.100131        9.422689       
95              358.355000      3021.721789     317.313524      0.100138        9.522827       
96              358.533000      3057.623491     317.742447      0.100135        9.622962       
97              358.625000      3093.534406     318.163483      0.100135        9.723097       
98              358.677000      3129.450527     318.576465      0.100135        9.823232       
99              358.750000      3165.363555     318.981733      0.100106        9.923338       
100             358.810000      3201.283306     319.379513      0.100108        10.023446      
101             358.903000      3237.264050     319.770903      0.100252        10.123698      
102             358.936000      3273.206824     320.154504      0.100137        10.223835      
103             358.935000      3309.164214     320.530807      0.100178        10.324013      
104             358.400000      3345.052957     320.894584      0.100136        10.424149      
105             358.508000      3380.960759     321.252548      0.100159        10.524308      
106             359.041000      3416.913689     321.608706      0.100136        10.624444      
107             359.002000      3452.862354     321.957846      0.100135        10.724579      
108             358.521000      3488.763213     322.296080      0.100136        10.824715      
109             358.716000      3524.687186     322.629934      0.100146        10.924861      
110             359.187000      3560.665511     322.962067      0.100166        11.025027      
111             359.135000      3596.627135     323.287648      0.100134        11.125161      
112             358.722000      3632.549556     323.603755      0.100140        11.225301      
113             358.722000      3668.469466     323.914251      0.100133        11.325434      
114             359.578000      3704.477247     324.226824      0.100139        11.425573      
115             359.578000      3740.484309     324.533960      0.100137        11.525710      
116             359.594000      3776.492255     324.835937      0.100135        11.625845      
117             359.666000      3812.507050     325.133368      0.100134        11.725979      
118             359.687000      3848.524667     325.425947      0.100136        11.826115      
119             359.149000      3884.531869     325.709434      0.100257        11.926372      
120             359.170000      3920.487300     325.987955      0.100107        12.026479      
121             359.259000      3956.447689     326.262584      0.100096        12.126575      
122             359.224000      3992.400982     326.532402      0.100086        12.226661      
123             359.326000      4028.369874     326.798706      0.100101        12.326762      
124             359.289000      4064.335781     327.060428      0.100103        12.426865      
125             359.336000      4100.305674     327.318337      0.100101        12.526966      
126             359.399000      4136.282951     327.572663      0.100104        12.627070      
127             359.448000      4172.262977     327.823360      0.100098        12.727168      
128             360.059000      4208.304883     328.074917      0.100100        12.827268      
129             360.926000      4244.461728     328.329488      0.100178        12.927446      
130             360.482000      4280.549220     328.576561      0.100109        13.027555      
131             360.498000      4316.636152     328.819973      0.100103        13.127658      
132             361.108000      4352.784146     329.064318      0.100103        13.227761      
133             361.311000      4388.951015     329.306506      0.100099        13.327860      
134             360.835000      4425.073846     329.541560      0.100109        13.427969      
135             360.880000      4461.201182     329.773467      0.100109        13.528078      
136             360.936000      4497.334124     330.002378      0.100109        13.628187      
137             360.990000      4533.472472     330.228345      0.100109        13.728296      
138             360.582000      4569.569255     330.448082      0.100107        13.828403      
139             360.439000      4605.657849     330.663670      0.100124        13.928527      
140             361.110000      4641.807849     330.880934      0.100108        14.028635      
141             361.079000      4677.954745     331.094900      0.100108        14.128743      
142             360.560000      4714.048604     331.302197      0.100105        14.228848      
143             360.601000      4750.145846     331.506880      0.100103        14.328951      
144             361.109000      4786.295385     331.712256      0.100107        14.429058      
145             361.083000      4822.440876     331.914615      0.100103        14.529161      
146             360.548000      4858.532092     332.110539      0.100101        14.629262      
147             360.745000      4894.643027     332.305140      0.100101        14.729363      
148             361.288000      4930.807233     332.500772      0.100098        14.829461      
149             361.315000      4966.989679     332.694045      0.100141        14.929602      
150             361.315000      5003.164536     332.884702      0.100120        15.029722      
151             361.254000      5039.325701     333.072394      0.100099        15.129821      
152             361.183000      5075.481202     333.257159      0.100103        15.229924      
153             361.343000      5111.657418     333.440579      0.100116        15.330040      
154             361.494000      5147.842968     333.622570      0.100100        15.430140      
155             361.479000      5184.038583     333.802176      0.100132        15.530272      
156             361.600000      5220.234381     333.980197      0.100099        15.630371      
157             361.535000      5256.424396     334.155542      0.100101        15.730472      
158             361.192000      5292.579354     334.326497      0.100099        15.830571      
159             360.859000      5328.708196     334.493245      0.100119        15.930690      
160             360.589000      5364.804598     334.656200      0.100104        16.030794      
161             360.461000      5400.889627     334.816344      0.100108        16.130902      
162             360.891000      5437.015899     334.977156      0.100103        16.231005      
163             360.944000      5473.146755     335.136319      0.100101        16.331106      
164             360.625000      5509.254333     335.291637      0.100125        16.431231      
165             360.421000      5545.334998     335.443810      0.100107        16.531338      
166             360.972000      5581.469739     335.597463      0.100104        16.631442      
167             361.250000      5617.632309     335.750941      0.100104        16.731546      
168             361.314000      5653.800202     335.902969      0.100101        16.831647      
169             361.324000      5689.972709     336.053274      0.100111        16.931758      
170             361.919000      5726.204420     336.205308      0.100110        17.031868      
171             362.014000      5762.470982     336.356224      0.100180        17.132048      
172             361.566000      5798.667716     336.502682      0.100111        17.232159      
173             361.548000      5834.863009     336.647345      0.100112        17.332271      
174             361.598000      5871.064393     336.790637      0.100115        17.432386      
175             361.610000      5907.264447     336.932352      0.100108        17.532494      
176             361.126000      5943.415326     337.069708      0.100106        17.632600      
177             361.186000      5979.572573     337.205852      0.100107        17.732707      
178             361.804000      6015.791324     337.343936      0.100106        17.832813      
179             361.810000      6052.016827     337.480535      0.100123        17.932936      
180             361.361000      6088.189786     337.613096      0.100102        18.033038      
181             361.396000      6124.364803     337.744381      0.100098        18.133136      
182             361.920000      6160.634254     337.877255      0.100214        18.233350      
183             361.989000      6196.877316     338.008933      0.100122        18.333472      
184             362.016000      6233.142269     338.139396      0.100175        18.433647      
185             362.225000      6269.421638     338.269555      0.100157        18.533804      
186             362.664000      6305.748966     338.400689      0.100168        18.633972      
187             362.350000      6342.027810     338.528682      0.100121        18.734093      
188             362.122000      6378.283827     338.654102      0.100121        18.834214      
189             362.122000      6414.539844     338.778195      0.100121        18.934335      
190             362.360000      6450.824762     338.902253      0.100135        19.034470      
191             362.766000      6487.145257     339.027119      0.100121        19.134591      
192             362.358000      6523.425990     339.148565      0.100124        19.234715      
193             362.168000      6559.688785     339.267773      0.100127        19.334842      
194             362.042000      6595.937878     339.385100      0.100124        19.434966      
195             362.016000      6632.186178     339.501097      0.100129        19.535095      
196             362.197000      6668.469987     339.616889      0.100177        19.635272      
197             362.190000      6704.734985     339.731413      0.100127        19.735399      
198             362.241000      6741.005090     339.845038      0.100127        19.835526      
199             362.279000      6777.301460     339.957782      0.100189        19.935715      
200             361.859000      6813.532955     340.067230      0.100126        20.035841      
201             361.712000      6849.766731     340.174909      0.100173        20.136014      
202             361.658000      6885.996544     340.281259      0.100177        20.236191      
203             361.659000      6922.209098     340.386515      0.100129        20.336320      
204             361.759000      6958.436368     340.491244      0.100142        20.436462      
205             361.763000      6994.658612     340.594955      0.100127        20.536589      
206             361.249000      7030.828668     340.695164      0.100125        20.636714      
207             361.125000      7066.986670     340.793808      0.100126        20.736840      
