#timestep       power           acc-energy      avg-power       dt              acc-time       
1               136.045000      13.621642       136.045000      0.100126        0.100126       
2               136.045000      29.070232       136.045000      0.113555        0.213681       
3               135.987000      42.687698       136.026493      0.100138        0.313819       
4               136.038000      56.309999       136.029276      0.100136        0.413955       
5               136.045000      69.931913       136.032339      0.100128        0.514083       
6               135.987000      83.553731       136.024945      0.100170        0.614253       
7               135.993000      97.176829       136.020466      0.100175        0.714428       
8               136.077000      110.801131      136.027415      0.100122        0.814550       
9               136.012000      124.420692      136.025727      0.100135        0.914685       
10              136.032000      138.042393      136.026346      0.100136        1.014821       
11              132.740000      151.333782      135.731208      0.100131        1.114952       
12              132.727000      164.624400      135.483632      0.100135        1.215087       
13              148.646000      179.508770      136.485736      0.100133        1.315220       
14              174.125000      196.944951      139.148702      0.100136        1.415356       
15              194.235000      216.389622      142.787608      0.100109        1.515465       
16              219.495000      238.367437      147.541670      0.100129        1.615594       
17              247.512000      263.150319      153.375849      0.100128        1.715722       
18              280.256000      291.212072      160.372229      0.100129        1.815851       
19              305.599000      321.810172      167.961484      0.100125        1.915976       
20              325.855000      354.436403      175.802900      0.100125        2.016101       
21              346.958000      389.174532      183.900531      0.100122        2.116223       
22              376.845000      426.906515      192.617009      0.100126        2.216349       
23              385.712000      465.529015      200.963795      0.100133        2.316482       
24              386.125000      504.189394      208.635332      0.100124        2.416606       
25              386.203000      542.857969      215.699639      0.100125        2.516731       
26              386.400000      581.545497      222.230777      0.100123        2.616854       
27              386.493000      620.243108      228.284101      0.100125        2.716979       
28              386.399000      658.930149      233.903630      0.100122        2.817101       
29              386.384000      697.615688      239.136908      0.100122        2.917223       
30              386.451000      736.308321      244.025154      0.100123        3.017346       
31              386.504000      775.000077      248.600405      0.100107        3.117453       
32              386.530000      813.702553      252.892640      0.100128        3.217581       
33              386.611000      852.413139      256.928242      0.100128        3.317709       
34              386.611000      891.121792      260.727207      0.100123        3.417832       
35              386.599000      929.818419      264.308617      0.100095        3.517927       
36              386.699000      968.532790      267.695286      0.100115        3.618042       
37              386.748000      1007.271403     270.902455      0.100165        3.718207       
38              386.842000      1046.005893     273.942790      0.100130        3.818337       
39              387.145000      1084.769173     276.835375      0.100126        3.918463       
40              387.077000      1123.526032     279.582150      0.100127        4.018590       
41              387.105000      1162.283371     282.195903      0.100121        4.118711       
42              387.192000      1201.049809     284.687687      0.100122        4.218833       
43              387.224000      1239.849654     287.066492      0.100200        4.319033       
44              387.292000      1278.626878     289.337283      0.100124        4.419157       
45              387.326000      1317.405957     291.508123      0.100120        4.519277       
46              387.385000      1356.189006     293.586040      0.100115        4.619392       
47              385.480000      1394.784420     295.535541      0.100123        4.719515       
48              385.513000      1433.383138     297.404730      0.100123        4.819638       
49              385.676000      1471.997791     299.201138      0.100122        4.919760       
50              385.698000      1510.606546     300.925971      0.100101        5.019861       
51              385.764000      1549.230009     302.584991      0.100122        5.119983       
52              385.770000      1587.853688     304.180470      0.100121        5.220104       
53              385.771000      1626.478237     305.715947      0.100123        5.320227       
54              385.777000      1665.185559     307.197898      0.100336        5.420563       
55              385.799000      1703.807511     308.623209      0.100109        5.520672       
56              385.871000      1742.445160     309.999329      0.100131        5.620803       
57              387.811000      1781.277839     311.361260      0.100133        5.720936       
58              387.844000      1820.148340     312.678051      0.100222        5.821158       
59              387.871000      1858.984312     313.949527      0.100126        5.921284       
60              387.898000      1897.822211     315.179143      0.100124        6.021408       
61              387.918000      1936.663665     316.368909      0.100128        6.121536       
62              387.936000      1975.505757     317.520636      0.100125        6.221661       
63              388.000000      2014.353869     318.636883      0.100124        6.321785       
64              388.016000      2053.203583     319.718573      0.100124        6.421909       
65              388.066000      2092.069169     320.768108      0.100152        6.522061       
66              387.321000      2130.849296     321.774353      0.100124        6.622185       
67              387.393000      2169.627336     322.751466      0.100100        6.722285       
68              387.411000      2208.402140     323.700047      0.100087        6.822372       
69              387.411000      2247.171134     324.621064      0.100072        6.922444       
70              387.425000      2285.960125     325.516453      0.100120        7.022564       
71              387.465000      2324.758158     326.387344      0.100133        7.122697       
72              387.465000      2363.554641     327.234055      0.100129        7.222826       
73              387.484000      2402.352251     328.057855      0.100127        7.322953       
74              387.498000      2441.151651     328.859627      0.100128        7.423081       
75              387.510000      2479.969690     329.640564      0.100173        7.523254       
76              388.211000      2518.841258     330.409862      0.100130        7.623384       
77              388.211000      2557.712437     331.159207      0.100129        7.723513       
78              387.593000      2596.521736     331.881461      0.100129        7.823642       
79              387.219000      2635.293588     332.580736      0.100129        7.923771       
80              386.841000      2674.026816     333.257828      0.100127        8.023898       
81              386.561000      2712.732396     333.914785      0.100128        8.124026       
82              386.223000      2751.406064     334.551662      0.100133        8.224159       
83              385.928000      2790.049806     335.169663      0.100132        8.324291       
84              385.653000      2828.662927     335.769656      0.100124        8.424415       
85              385.238000      2867.234112     336.350675      0.100123        8.524538       
86              384.812000      2905.795737     336.913736      0.100209        8.624747       
87              384.666000      2944.309267     337.461716      0.100122        8.724869       
88              385.000000      2982.859702     338.001099      0.100131        8.825000       
89              384.953000      3021.450855     338.528466      0.100249        8.925249       
90              385.009000      3060.000266     339.044114      0.100126        9.025375       
91              384.985000      3098.551509     339.548237      0.100137        9.125512       
92              384.936000      3137.096306     340.040865      0.100133        9.225645       
93              384.900000      3175.625565     340.522380      0.100102        9.325747       
94              384.932000      3214.164187     340.994082      0.100118        9.425865       
95              384.978000      3252.713959     341.456431      0.100135        9.526000       
96              385.085000      3291.286769     341.910417      0.100167        9.626167       
97              385.048000      3329.911318     342.355303      0.100311        9.726478       
98              385.081000      3368.491814     342.790913      0.100188        9.826666       
99              385.040000      3407.041248     343.217023      0.100118        9.926784       
100             385.047000      3445.596390     343.634746      0.100131        10.026915      
101             385.100000      3484.158378     344.044749      0.100135        10.127050      
102             385.175000      3522.727877     344.447458      0.100135        10.227185      
103             385.110000      3561.280083     344.841618      0.100107        10.327292      
104             385.110000      3599.831905     345.228206      0.100106        10.427398      
105             385.125000      3638.395627     345.607686      0.100133        10.527531      
106             385.150000      3676.951838     345.980155      0.100107        10.627638      
107             385.162000      3715.509635     346.345787      0.100108        10.727746      
108             385.220000      3754.072469     346.705188      0.100106        10.827852      
109             385.212000      3792.632960     347.057918      0.100102        10.927954      
110             385.212000      3831.203467     347.404333      0.100128        11.028082      
111             385.290000      3869.780243     347.745202      0.100124        11.128206      
112             385.290000      3908.358946     348.080009      0.100129        11.228335      
113             385.355000      3946.943771     348.409468      0.100128        11.328463      
114             385.302000      3985.523675     348.732694      0.100129        11.428592      
115             385.302000      4024.103964     349.050308      0.100130        11.528722      
116             385.308000      4062.684084     349.362498      0.100128        11.628850      
117             385.301000      4101.263888     349.669301      0.100129        11.728979      
118             385.353000      4139.844659     349.971317      0.100118        11.829097      
119             385.295000      4178.417312     350.267760      0.100112        11.929209      
120             385.391000      4217.003045     350.560093      0.100121        12.029330      
121             385.282000      4255.583258     350.846740      0.100135        12.129465      
122             385.276000      4294.163641     351.128650      0.100137        12.229602      
123             385.271000      4332.741211     351.405923      0.100131        12.329733      
124             385.308000      4371.321716     351.679022      0.100129        12.429862      
125             385.335000      4409.899144     351.947932      0.100114        12.529976      
126             385.343000      4448.488548     352.212719      0.100143        12.630119      
127             385.350000      4487.075570     352.473373      0.100135        12.730254      
128             385.372000      4525.661327     352.730108      0.100126        12.830380      
129             385.386000      4564.281629     352.983191      0.100212        12.930592      
130             385.408000      4602.867907     353.232319      0.100118        13.030710      
131             385.511000      4641.466039     353.478442      0.100122        13.130832      
132             385.583000      4680.076393     353.721417      0.100135        13.230967      
133             385.556000      4718.671705     353.960463      0.100103        13.331070      
134             385.571000      4757.271989     354.196078      0.100112        13.431182      
135             385.600000      4795.888673     354.428502      0.100147        13.531329      
136             385.686000      4834.508954     354.658114      0.100134        13.631463      
137             385.547000      4873.111462     354.883340      0.100124        13.731587      
138             385.550000      4911.725066     355.105390      0.100152        13.831739      
139             385.555000      4950.333001     355.324248      0.100136        13.931875      
140             385.552000      4988.941022     355.539963      0.100137        14.032012      
141             385.559000      5027.548587     355.752664      0.100134        14.132146      
142             385.587000      5066.157799     355.962563      0.100131        14.232277      
143             385.585000      5104.761412     356.169487      0.100117        14.332394      
144             385.511000      5143.359930     356.373038      0.100123        14.432517      
145             385.552000      5181.966023     356.574085      0.100132        14.532649      
146             385.566000      5220.576988     356.772494      0.100141        14.632790      
147             385.735000      5259.209505     356.969378      0.100153        14.732943      
148             385.734000      5297.843080     357.163603      0.100156        14.833099      
149             385.723000      5336.491753     357.355228      0.100198        14.933297      
150             385.723000      5375.131940     357.544257      0.100176        15.033473      
151             385.637000      5413.767754     357.730235      0.100187        15.133660      
152             385.637000      5452.399326     357.913747      0.100176        15.233836      
153             385.664000      5491.037846     358.095057      0.100187        15.334023      
154             385.689000      5529.643772     358.274014      0.100096        15.434119      
155             385.689000      5568.250469     358.450669      0.100098        15.534217      
156             385.622000      5606.852388     358.624640      0.100103        15.634320      
157             385.637000      5645.473934     358.796574      0.100150        15.734470      
158             385.703000      5684.098618     358.966735      0.100141        15.834611      
159             385.659000      5722.716582     359.134471      0.100135        15.934746      
160             385.617000      5761.329955     359.299848      0.100134        16.034880      
161             385.649000      5799.936119     359.463328      0.100107        16.134987      
162             385.656000      5838.551854     359.624871      0.100130        16.235117      
163             385.626000      5877.164200     359.784248      0.100129        16.335246      
164             385.662000      5915.782464     359.941912      0.100135        16.435381      
165             385.666000      5954.406914     360.097714      0.100150        16.535531      
166             385.686000      5993.028739     360.251742      0.100138        16.635669      
167             385.680000      6031.649963     360.403891      0.100138        16.735807      
168             385.693000      6070.270946     360.554301      0.100134        16.835941      
169             385.739000      6108.918136     360.703288      0.100190        16.936131      
170             385.780000      6147.547831     360.850681      0.100134        17.036265      
171             385.846000      6186.240082     360.996948      0.100279        17.136544      
172             385.795000      6224.863562     361.140980      0.100114        17.236658      
173             385.828000      6263.486103     361.283524      0.100103        17.336761      
174             385.833000      6302.118403     361.424493      0.100127        17.436888      
175             385.805000      6340.738641     361.563659      0.100103        17.536991      
176             385.882000      6379.373147     361.701707      0.100120        17.637111      
177             385.823000      6418.006762     361.837880      0.100133        17.737244      
178             385.858000      6456.643495     361.972719      0.100132        17.837376      
179             385.814000      6495.273893     362.105801      0.100127        17.937503      
180             385.851000      6533.910311     362.237619      0.100133        18.037636      
181             385.874000      6572.547489     362.368103      0.100129        18.137765      
182             385.930000      6611.187187     362.497451      0.100121        18.237886      
183             385.965000      6649.839652     362.625609      0.100145        18.338031      
184             385.965000      6688.489415     362.752365      0.100138        18.438169      
185             385.900000      6727.136142     362.877412      0.100147        18.538316      
186             385.884000      6765.776251     363.001014      0.100134        18.638450      
187             385.884000      6804.409027     363.123272      0.100115        18.738565      
188             385.976000      6843.051014     363.244719      0.100115        18.838680      
189             385.976000      6881.693388     363.364883      0.100116        18.938796      
190             386.010000      6920.339165     363.483962      0.100116        19.038912      
191             385.967000      6958.988356     363.601594      0.100136        19.139048      
192             385.930000      6997.625352     363.717783      0.100114        19.239162      
193             385.858000      7036.253597     363.832392      0.100110        19.339272      
194             385.927000      7074.886433     363.946170      0.100104        19.439376      
195             385.955000      7113.524388     364.058931      0.100110        19.539486      
196             385.988000      7152.192280     364.170788      0.100179        19.639665      
197             385.940000      7190.833751     364.281205      0.100123        19.739788      
198             386.016000      7229.488621     364.390907      0.100138        19.839926      
199             385.968000      7268.133281     364.499251      0.100124        19.940050      
200             386.051000      7306.799377     364.606963      0.100158        20.040208      
201             386.025000      7345.449744     364.713439      0.100124        20.140332      
202             386.073000      7384.098740     364.819082      0.100108        20.240440      
203             386.066000      7422.753598     364.923668      0.100125        20.340565      
204             386.062000      7461.406898     365.027208      0.100122        20.440687      
205             386.161000      7500.070496     365.130221      0.100123        20.540810      
206             386.161000      7538.734093     365.232235      0.100123        20.640933      
207             386.141000      7577.398006     365.333174      0.100129        20.741062      
