#timestep       power           acc-energy      avg-power       dt              acc-time       
1               135.972000      13.614061       135.972000      0.100124        0.100124       
2               136.024000      28.937572       135.999531      0.112653        0.212777       
3               135.985000      42.553206       135.994881      0.100126        0.312903       
4               135.966000      56.167074       135.987880      0.100127        0.413030       
5               135.977000      69.784355       135.985757      0.100144        0.513174       
6               135.933000      83.394646       135.977144      0.100125        0.613299       
7               136.013000      97.013492       135.982176      0.100129        0.713428       
8               136.019000      110.632802      135.986708      0.100128        0.813556       
9               136.018000      124.251469      135.990137      0.100124        0.913680       
10              136.049000      137.873647      135.995951      0.100127        1.013807       
11              133.074000      151.197681      135.733313      0.100125        1.113932       
12              133.046000      164.518779      135.511689      0.100124        1.214056       
13              147.861000      179.323509      136.452568      0.100126        1.314182       
14              178.533000      197.200197      139.431793      0.100131        1.414313       
15              215.267000      218.754021      144.445581      0.100126        1.514439       
16              243.471000      243.131555      150.586508      0.100125        1.614564       
17              273.144000      270.479551      157.742813      0.100123        1.714687       
18              303.006000      300.817724      165.757054      0.100124        1.814811       
19              330.918000      333.950227      174.392552      0.100123        1.914934       
20              366.444000      370.638967      183.934913      0.100121        2.015055       
21              396.310000      410.317524      193.987506      0.100120        2.115175       
22              426.437000      453.013249      204.493235      0.100122        2.215297       
23              435.319000      496.590422      214.472751      0.100104        2.315401       
24              435.060000      540.146019      223.615262      0.100114        2.415515       
25              434.485000      583.640575      232.006560      0.100106        2.515621       
26              434.038000      627.092119      239.738765      0.100110        2.615731       
27              433.955000      670.541429      246.898833      0.100124        2.715855       
28              433.955000      713.990740      253.549739      0.100124        2.815979       
29              433.195000      757.360057      259.717299      0.100115        2.916094       
30              433.195000      800.731974      265.475761      0.100121        3.016215       
31              433.671000      844.151114      270.879451      0.100120        3.116335       
32              434.267000      887.629492      275.965237      0.100119        3.216454       
33              434.267000      931.109173      280.744109      0.100122        3.316576       
34              434.139000      974.586457      285.240197      0.100146        3.416722       
35              434.066000      1018.044277     289.476995      0.100118        3.516840       
36              434.440000      1061.539975     293.489635      0.100119        3.616959       
37              434.310000      1105.023092     297.282649      0.100120        3.717079       
38              434.154000      1148.488854     300.872461      0.100116        3.817195       
39              434.288000      1191.970203     304.282372      0.100121        3.917316       
40              434.576000      1235.469522     307.528708      0.100096        4.017412       
41              434.775000      1278.986587     310.621896      0.100091        4.117503       
42              434.604000      1322.499139     313.565043      0.100120        4.217623       
43              434.543000      1366.046431     316.372858      0.100214        4.317837       
44              434.958000      1409.600951     319.060635      0.100135        4.417972       
45              434.966000      1453.151922     321.629200      0.100125        4.518097       
46              434.912000      1496.700530     324.085386      0.100132        4.618229       
47              435.114000      1540.265449     326.441403      0.100123        4.718352       
48              435.482000      1583.869826     328.707289      0.100129        4.818481       
49              435.749000      1627.500502     330.886334      0.100128        4.918609       
50              435.685000      1671.120848     332.976971      0.100119        5.018728       
51              435.617000      1714.737436     334.984634      0.100126        5.118854       
52              435.962000      1758.388131     336.921864      0.100125        5.218979       
53              435.881000      1802.031152     338.784655      0.100126        5.319105       
54              435.750000      1845.660621     340.576174      0.100125        5.419230       
55              435.796000      1889.294260     342.303512      0.100124        5.519354       
56              436.084000      1932.945396     343.974002      0.100098        5.619452       
57              436.240000      1976.618691     345.588990      0.100113        5.719565       
58              436.041000      2020.273808     347.145052      0.100117        5.819682       
59              435.938000      2063.919485     348.646768      0.100119        5.919801       
60              436.265000      2107.597900     350.103972      0.100119        6.019920       
61              436.150000      2151.265238     351.511630      0.100120        6.120040       
62              436.045000      2194.922064     352.872284      0.100120        6.220160       
63              436.086000      2238.582122     354.190452      0.100118        6.320278       
64              436.295000      2282.263977     355.470794      0.100120        6.420398       
65              436.295000      2325.943651     356.711757      0.100115        6.520513       
66              436.438000      2369.639387     357.917399      0.100119        6.620632       
67              436.438000      2413.335123     359.087120      0.100119        6.720751       
68              436.462000      2457.030644     360.222788      0.100113        6.820864       
69              436.462000      2500.728346     361.325654      0.100118        6.920982       
70              436.350000      2544.415272     362.395481      0.100119        7.021101       
71              436.350000      2588.091725     363.434980      0.100095        7.121196       
72              435.886000      2631.727401     364.439359      0.100108        7.221304       
73              436.220000      2675.412216     365.421187      0.100144        7.321448       
74              436.438000      2719.108825     366.379242      0.100121        7.421569       
75              436.302000      2762.791382     367.309973      0.100120        7.521689       
76              436.132000      2806.456045     368.214000      0.100118        7.621807       
77              436.486000      2850.204600     369.100144      0.100229        7.722036       
78              436.393000      2893.898886     369.961513      0.100126        7.822162       
79              436.229000      2937.576315     370.799027      0.100125        7.922287       
80              436.238000      2981.262497     371.615894      0.100143        8.022430       
81              436.899000      3025.151623     372.423252      0.100456        8.122886       
82              437.170000      3069.042616     373.213745      0.100398        8.223284       
83              436.855000      3112.883637     373.981051      0.100356        8.323640       
84              436.537000      3156.651709     374.725597      0.100262        8.423902       
85              436.760000      3200.510275     375.456374      0.100418        8.524320       
86              436.313000      3244.338352     376.165159      0.100451        8.624771       
87              436.083000      3288.029944     376.853211      0.100191        8.724962       
88              436.054000      3331.721683     377.525357      0.100198        8.825160       
89              436.275000      3375.486609     378.185655      0.100315        8.925475       
90              436.458000      3419.320523     378.834050      0.100431        9.025906       
91              436.329000      3463.181623     379.467328      0.100523        9.126429       
92              436.112000      3506.872631     380.082378      0.100183        9.226612       
93              436.505000      3550.677654     380.689460      0.100354        9.326966       
94              436.489000      3594.603288     381.285087      0.100634        9.427600       
95              436.391000      3638.535643     381.867315      0.100672        9.528272       
96              436.707000      3682.449152     382.440018      0.100556        9.628828       
97              436.916000      3726.344792     383.002550      0.100467        9.729295       
98              437.170000      3770.217424     383.555573      0.100356        9.829651       
99              437.110000      3814.004044     384.095835      0.100173        9.929824       
100             436.907000      3857.772514     384.623305      0.100178        10.030002      
101             437.271000      3901.570889     385.143864      0.100163        10.130165      
102             437.170000      3945.330294     385.652908      0.100097        10.230262      
103             437.170000      3989.096695     386.152167      0.100113        10.330375      
104             436.960000      4032.846441     386.639875      0.100123        10.430498      
105             437.216000      4076.648926     387.121037      0.100185        10.530683      
106             437.216000      4120.492946     387.593574      0.100280        10.630963      
107             437.371000      4164.355572     388.058760      0.100287        10.731250      
108             437.371000      4208.176209     388.514899      0.100191        10.831441      
109             437.055000      4251.927163     388.959398      0.100104        10.931545      
110             437.224000      4295.705091     389.397463      0.100127        11.031672      
111             437.176000      4339.479086     389.827224      0.100129        11.131801      
112             436.999000      4383.254587     390.247929      0.100173        11.231974      
113             437.023000      4427.102416     390.662062      0.100333        11.332307      
114             437.256000      4470.873053     391.070042      0.100103        11.432410      
115             437.465000      4514.662425     391.472733      0.100098        11.532508      
116             437.151000      4558.425611     391.865839      0.100110        11.632618      
117             436.884000      4602.152020     392.249871      0.100087        11.732705      
118             437.125000      4645.916101     392.629561      0.100118        11.832823      
119             437.106000      4689.703195     393.002931      0.100175        11.932998      
120             436.950000      4733.452813     393.368605      0.100125        12.033123      
121             436.986000      4777.223516     393.728684      0.100165        12.133288      
122             437.205000      4820.999978     394.084529      0.100128        12.233416      
123             437.434000      4864.795870     394.436427      0.100120        12.333536      
124             437.283000      4908.595447     394.781589      0.100163        12.433699      
125             437.338000      4952.377355     395.121495      0.100110        12.533809      
126             437.669000      4996.191961     395.458634      0.100109        12.633918      
127             437.591000      5039.995695     395.789837      0.100102        12.734020      
128             437.450000      5083.782690     396.114753      0.100096        12.834116      
129             437.484000      5127.603275     396.435123      0.100165        12.934281      
130             437.727000      5171.429815     396.752304      0.100123        13.034404      
131             437.882000      5215.357262     397.066437      0.100318        13.134722      
132             437.783000      5259.206045     397.374578      0.100161        13.234883      
133             437.486000      5303.011518     397.675767      0.100130        13.335013      
134             437.746000      5346.843463     397.974407      0.100131        13.435144      
135             437.644000      5390.660818     398.267845      0.100121        13.535265      
136             437.449000      5434.519892     398.555941      0.100261        13.635526      
137             437.470000      5478.318076     398.839579      0.100117        13.735643      
138             437.728000      5522.140339     399.120969      0.100113        13.835756      
139             437.728000      5565.962165     399.398313      0.100112        13.935868      
140             437.927000      5609.867850     399.673517      0.100258        14.036126      
141             437.576000      5653.678834     399.941967      0.100122        14.136248      
142             437.576000      5697.478441     400.206573      0.100096        14.236344      
143             437.810000      5741.297531     400.469094      0.100087        14.336431      
144             437.750000      5785.110615     400.727559      0.100087        14.436518      
145             437.537000      5828.906319     400.981021      0.100096        14.536614      
146             437.578000      5872.700438     401.231264      0.100083        14.636697      
147             437.719000      5916.509106     401.479068      0.100084        14.736781      
148             438.001000      5960.345560     401.725429      0.100083        14.836864      
149             437.867000      6004.169041     401.967593      0.100084        14.936948      
150             437.683000      6047.974106     402.205309      0.100084        15.037032      
151             437.859000      6091.799851     402.441062      0.100091        15.137123      
152             437.872000      6135.622957     402.673782      0.100082        15.237205      
153             437.642000      6179.423044     402.901963      0.100082        15.337287      
154             437.679000      6223.235587     403.127471      0.100102        15.437389      
155             437.867000      6267.073079     403.351315      0.100116        15.537505      
156             438.149000      6310.930480     403.574057      0.100097        15.637602      
157             438.029000      6354.773679     403.793191      0.100092        15.737694      
158             437.787000      6398.590904     404.008017      0.100088        15.837782      
159             437.989000      6442.431413     404.221429      0.100095        15.937877      
160             437.965000      6486.334338     404.432336      0.100243        16.038120      
161             437.805000      6530.168250     404.639381      0.100122        16.138242      
162             437.842000      6574.013748     404.844137      0.100140        16.238382      
163             438.033000      6617.879687     405.047560      0.100143        16.338525      
164             438.294000      6661.760806     405.250044      0.100118        16.438643      
165             438.310000      6705.644841     405.450180      0.100121        16.538764      
166             438.001000      6749.495311     405.646036      0.100115        16.638879      
167             438.163000      6793.421590     405.840781      0.100251        16.739130      
168             438.143000      6837.284962     406.032823      0.100112        16.839242      
169             438.039000      6881.132228     406.221956      0.100099        16.939341      
170             437.910000      6924.971836     406.408131      0.100111        17.039452      
171             437.995000      6968.851051     406.592758      0.100182        17.139634      
172             438.270000      7012.738971     406.776758      0.100139        17.239773      
173             436.956000      7056.481325     406.950990      0.100107        17.339880      
174             435.978000      7100.169373     407.117773      0.100207        17.440087      
175             436.066000      7143.813910     407.282956      0.100087        17.540174      
176             436.175000      7187.474592     407.446902      0.100099        17.640273      
177             435.904000      7231.117736     407.607505      0.100121        17.740394      
178             435.902000      7274.754578     407.766272      0.100107        17.840501      
179             435.943000      7318.398575     407.923506      0.100114        17.940615      
180             435.943000      7362.048240     408.079016      0.100127        18.040742      
181             436.308000      7405.765865     408.234935      0.100199        18.140941      
182             436.308000      7449.444223     408.389003      0.100109        18.241050      
183             436.048000      7493.105709     408.540002      0.100130        18.341180      
184             437.916000      7536.955552     408.699508      0.100133        18.441313      
185             438.172000      7580.839354     408.858704      0.100152        18.541465      
186             438.008000      7624.699285     409.015282      0.100135        18.641600      
187             438.008000      7668.545638     409.170139      0.100104        18.741704      
188             438.162000      7712.414417     409.324194      0.100120        18.841824      
189             438.478000      7756.312204     409.478281      0.100114        18.941938      
190             438.491000      7800.204714     409.630793      0.100099        19.042037      
191             438.033000      7844.078538     409.779407      0.100161        19.142198      
192             437.966000      7887.965797     409.926191      0.100207        19.242405      
193             438.256000      7931.832154     410.072792      0.100093        19.342498      
194             438.074000      7975.680733     410.216947      0.100094        19.442592      
195             437.983000      8019.526774     410.359181      0.100109        19.542701      
196             438.014000      8063.376355     410.500124      0.100110        19.642811      
197             438.293000      8107.263948     410.641085      0.100133        19.742944      
198             438.423000      8151.158859     410.781261      0.100120        19.843064      
199             438.159000      8195.018137     410.918676      0.100099        19.943163      
200             438.241000      8238.893511     411.055152      0.100117        20.043280      
201             438.524000      8282.799849     411.191686      0.100123        20.143403      
202             438.442000      8326.691839     411.326446      0.100109        20.243512      
203             438.382000      8370.577823     411.459583      0.100109        20.343621      
204             438.405000      8414.462602     411.591519      0.100101        20.443722      
205             438.682000      8458.371161     411.723508      0.100092        20.543814      
206             438.760000      8502.290598     411.854603      0.100099        20.643913      
207             438.422000      8546.186724     411.982833      0.100123        20.744036      
