#timestep       power           acc-energy      avg-power       dt              acc-time       
1               135.753000      13.594984       135.753000      0.100145        0.100145       
2               135.736000      28.626389       135.744073      0.110740        0.210885       
3               135.733000      42.224392       135.740507      0.100182        0.311067       
4               135.689000      55.807675       135.727967      0.100106        0.411173       
5               135.705000      69.396903       135.723469      0.100138        0.511311       
6               135.625000      82.977034       135.707343      0.100130        0.611441       
7               135.657000      96.567016       135.700256      0.100179        0.711620       
8               135.649000      110.148873      135.693934      0.100125        0.811745       
9               135.603000      123.727208      135.683949      0.100133        0.911878       
10              135.666000      137.321891      135.682172      0.100207        1.012085       
11              133.508000      150.690180      135.486434      0.100131        1.112216       
12              133.511000      164.058637      135.323279      0.100130        1.212346       
13              142.112000      178.288595      135.841207      0.100132        1.312478       
14              161.323000      194.442190      137.647468      0.100132        1.412610       
15              179.929000      212.459021      140.446210      0.100133        1.512743       
16              204.857000      232.981185      144.446743      0.100178        1.612921       
17              219.642000      254.970205      148.841298      0.100113        1.713034       
18              241.504000      279.153932      153.958881      0.100138        1.813172       
19              256.303000      304.818064      159.315020      0.100132        1.913304       
20              278.277000      332.681940      165.231113      0.100130        2.013434       
21              303.586000      363.080917      171.785856      0.100133        2.113567       
22              318.666000      394.990537      178.429860      0.100135        2.213702       
23              321.015000      427.233284      184.618439      0.100440        2.314142       
24              320.599000      459.332297      190.257692      0.100122        2.414264       
25              320.599000      491.437081      195.448735      0.100140        2.514404       
26              320.597000      523.552564      200.243620      0.100174        2.614578       
27              320.597000      555.653942      204.682766      0.100130        2.714708       
28              320.663000      587.763532      208.808637      0.100135        2.814843       
29              320.755000      619.887466      212.654800      0.100151        2.914994       
30              320.527000      651.976706      216.236601      0.100114        3.015108       
31              320.820000      684.162010      219.604359      0.100322        3.115430       
32              320.773000      716.315974      222.757994      0.100239        3.215669       
33              320.682000      748.425542      225.715059      0.100129        3.315798       
34              320.965000      780.566015      228.507280      0.100137        3.415935       
35              320.812000      812.692128      231.136176      0.100140        3.516075       
36              320.936000      844.830017      233.622858      0.100138        3.616213       
37              321.042000      876.974669      235.978114      0.100126        3.716339       
38              320.890000      909.108914      238.206126      0.100141        3.816480       
39              321.111000      941.265933      240.325896      0.100143        3.916623       
40              321.121000      973.422348      242.340121      0.100138        4.016761       
41              321.021000      1005.582232     244.254710      0.100180        4.116941       
42              321.325000      1037.760038     246.084861      0.100141        4.217082       
43              321.127000      1069.950451     247.827231      0.100242        4.317324       
44              321.218000      1102.116900     249.490918      0.100139        4.417463       
45              321.415000      1134.301149     251.085123      0.100133        4.517596       
46              321.181000      1166.462608     252.605145      0.100135        4.617731       
47              321.464000      1198.652727     254.066663      0.100136        4.717867       
48              321.417000      1230.838140     255.466454      0.100136        4.818003       
49              321.243000      1263.005165     256.805661      0.100133        4.918136       
50              321.512000      1295.192375     258.096526      0.100112        5.018248       
51              321.323000      1327.379621     259.333912      0.100171        5.118419       
52              321.330000      1359.567568     260.523929      0.100171        5.218590       
53              321.535000      1391.758045     261.672352      0.100115        5.318705       
54              321.276000      1423.925804     262.773662      0.100125        5.418830       
55              321.425000      1456.109768     263.837758      0.100129        5.518959       
56              321.533000      1488.310012     264.866026      0.100146        5.619105       
57              321.355000      1520.489859     265.855089      0.100138        5.719243       
58              321.645000      1552.696173     266.815028      0.100130        5.819373       
59              321.457000      1584.885591     267.739367      0.100136        5.919509       
60              321.378000      1617.068384     268.631673      0.100140        6.019649       
61              321.668000      1649.277966     269.499463      0.100133        6.119782       
62              321.419000      1681.464543     270.335354      0.100139        6.219921       
63              321.560000      1713.664597     271.146973      0.100137        6.320058       
64              321.560000      1745.864650     271.933275      0.100137        6.420195       
65              321.696000      1778.079288     272.697536      0.100140        6.520335       
66              321.783000      1810.296202     273.439847      0.100120        6.620455       
67              321.783000      1842.511507     274.160005      0.100115        6.720570       
68              321.693000      1874.713619     274.857612      0.100102        6.820672       
69              321.654000      1906.924373     275.534735      0.100141        6.920813       
70              321.937000      1939.176343     276.196838      0.100181        7.020994       
71              321.704000      1971.390817     276.836758      0.100137        7.121131       
72              321.847000      2003.619610     277.460913      0.100137        7.221268       
73              321.921000      2035.854525     278.068982      0.100133        7.321401       
74              321.748000      2068.073726     278.658338      0.100138        7.421539       
75              322.041000      2100.313251     279.235744      0.100110        7.521649       
76              321.876000      2132.537545     279.795835      0.100114        7.621763       
77              321.752000      2164.753607     280.339866      0.100127        7.721890       
78              322.018000      2196.987609     280.873232      0.100100        7.821990       
79              321.772000      2229.213719     281.390275      0.100152        7.922142       
80              321.852000      2261.436253     281.895229      0.100116        8.022258       
81              322.026000      2293.671700     282.389810      0.100102        8.122360       
82              321.771000      2325.881942     282.869250      0.100103        8.222463       
83              321.887000      2358.102187     283.338529      0.100098        8.322561       
84              321.888000      2390.321245     283.796647      0.100094        8.422655       
85              321.750000      2422.527133     284.242392      0.100096        8.522751       
86              322.014000      2454.776513     284.681083      0.100149        8.622900       
87              321.842000      2487.003196     285.107655      0.100132        8.723032       
88              321.861000      2519.221804     285.524632      0.100101        8.823133       
89              322.014000      2551.452185     285.933926      0.100090        8.923223       
90              321.780000      2583.663650     286.331599      0.100104        9.023327       
91              322.000000      2615.899392     286.722987      0.100111        9.123438       
92              322.006000      2648.135091     287.105936      0.100109        9.223547       
93              321.781000      2680.352770     287.478297      0.100123        9.323670       
94              322.102000      2712.600334     287.846130      0.100116        9.423786       
95              321.889000      2744.826251     288.203988      0.100115        9.523901       
96              321.876000      2777.047326     288.554227      0.100104        9.624005       
97              322.095000      2809.294511     288.899554      0.100117        9.724122       
98              321.888000      2841.518397     289.235707      0.100109        9.824231       
99              321.888000      2873.737133     289.565026      0.100093        9.924324       
100             322.086000      2905.973754     289.889726      0.100087        10.024411      
101             322.086000      2938.211020     290.208012      0.100089        10.124500      
102             321.888000      2970.427502     290.518120      0.100086        10.224586      
103             322.160000      3002.671852     290.824858      0.100088        10.324674      
104             321.954000      3034.896872     291.123741      0.100092        10.424766      
105             321.880000      3067.112876     291.416220      0.100087        10.524853      
106             322.197000      3099.362540     291.706192      0.100093        10.624946      
107             321.981000      3131.588008     291.988714      0.100085        10.725031      
108             322.114000      3163.831298     292.267280      0.100099        10.825130      
109             322.171000      3196.078682     292.541250      0.100094        10.925224      
110             322.008000      3228.310073     292.808768      0.100095        11.025319      
111             322.330000      3260.576272     293.074391      0.100103        11.125422      
112             322.237000      3292.833163     293.334447      0.100103        11.225525      
113             322.082000      3325.076148     293.588548      0.100108        11.325633      
114             322.358000      3357.344828     293.840600      0.100102        11.425735      
115             322.076000      3389.592044     294.085876      0.100123        11.525858      
116             322.152000      3421.849123     294.327598      0.100130        11.625988      
117             322.295000      3454.118910     294.566402      0.100125        11.726113      
118             322.000000      3486.384598     294.798846      0.100204        11.826317      
119             322.185000      3518.644016     295.028763      0.100127        11.926444      
120             322.171000      3550.905575     295.254759      0.100138        12.026582      
121             321.994000      3583.147479     295.475549      0.100132        12.126714      
122             322.290000      3615.459952     295.695423      0.100259        12.226973      
123             322.245000      3647.726988     295.911083      0.100132        12.327105      
124             322.162000      3679.987646     296.122611      0.100138        12.427243      
125             322.397000      3712.271837     296.332636      0.100138        12.527381      
126             322.123000      3744.528590     296.537157      0.100138        12.627519      
127             322.272000      3776.799941     296.739631      0.100137        12.727656      
128             322.346000      3809.088696     296.939582      0.100168        12.827824      
129             322.064000      3841.363051     297.134333      0.100211        12.928035      
130             322.393000      3873.644907     297.328466      0.100132        13.028167      
131             322.211000      3905.908217     297.518248      0.100131        13.128298      
132             322.107000      3938.161435     297.704371      0.100132        13.228430      
133             322.443000      3970.444105     297.890198      0.100119        13.328549      
134             322.150000      4002.704206     298.071108      0.100140        13.428689      
135             322.269000      4034.976224     298.250220      0.100140        13.528829      
136             322.323000      4067.253327     298.427095      0.100139        13.628968      
137             322.164000      4099.515474     298.600235      0.100142        13.729110      
138             322.342000      4131.795124     298.772155      0.100141        13.829251      
139             322.424000      4164.080729     298.942181      0.100134        13.929385      
140             322.298000      4196.357585     299.108900      0.100146        14.029531      
141             322.562000      4228.667653     299.275162      0.100167        14.129698      
142             322.562000      4260.955141     299.438969      0.100097        14.229795      
143             322.357000      4293.222754     299.599059      0.100099        14.329894      
144             322.357000      4326.816222     299.763368      0.104212        14.434106      
145             322.284000      4359.075561     299.918466      0.100096        14.534202      
146             322.284000      4391.337157     300.071452      0.100103        14.634305      
147             322.532000      4423.625513     300.224055      0.100109        14.734414      
148             322.532000      4455.910321     300.374581      0.100098        14.834512      
149             322.170000      4488.166303     300.520696      0.100121        14.934633      
150             322.503000      4520.455304     300.667081      0.100120        15.034753      
151             322.132000      4552.711347     300.809094      0.100133        15.134886      
152             322.208000      4584.988534     300.949798      0.100175        15.235061      
153             322.368000      4617.264985     301.089637      0.100123        15.335184      
154             322.038000      4649.517091     301.225558      0.100150        15.435334      
155             322.234000      4681.774970     301.360931      0.100107        15.535441      
156             322.309000      4714.038101     301.495043      0.100100        15.635541      
157             321.967000      4746.271827     301.625291      0.100115        15.735656      
158             322.277000      4778.539167     301.755864      0.100123        15.835779      
159             322.270000      4810.809351     301.884765      0.100134        15.935913      
160             322.216000      4843.068650     302.011698      0.100117        16.036030      
161             322.499000      4875.360798     302.138830      0.100131        16.136161      
162             322.119000      4907.614251     302.262047      0.100129        16.236290      
163             322.227000      4939.874007     302.384399      0.100115        16.336405      
164             322.362000      4972.146312     302.506079      0.100112        16.436517      
165             322.136000      5004.400501     302.624934      0.100126        16.536643      
166             322.268000      5036.667907     302.743153      0.100126        16.636769      
167             322.292000      5068.939005     302.860106      0.100130        16.736899      
168             322.118000      5101.192036     302.974631      0.100128        16.837027      
169             322.439000      5133.477853     303.089701      0.100130        16.937157      
170             322.187000      5165.739081     303.201940      0.100132        17.037289      
171             322.305000      5198.042745     303.313663      0.100227        17.137516      
172             322.521000      5230.338062     303.425239      0.100134        17.237650      
173             322.260000      5262.613046     303.534038      0.100152        17.337802      
174             322.487000      5294.905282     303.642873      0.100135        17.437937      
175             322.536000      5327.201779     303.750742      0.100133        17.538070      
176             322.381000      5359.494684     303.856546      0.100170        17.638240      
177             322.683000      5391.807514     303.962826      0.100138        17.738378      
178             322.523000      5424.106257     304.067022      0.100144        17.838522      
179             322.430000      5456.395042     304.169532      0.100142        17.938664      
180             322.652000      5488.710253     304.272151      0.100155        18.038819      
181             322.236000      5520.980255     304.371328      0.100144        18.138963      
182             322.491000      5553.275794     304.470816      0.100144        18.239107      
183             322.574000      5585.572226     304.569648      0.100121        18.339228      
184             322.303000      5617.844747     304.665946      0.100131        18.439359      
185             322.552000      5650.150588     304.762572      0.100157        18.539516      
186             322.357000      5682.428517     304.857089      0.100131        18.639647      
187             322.257000      5714.696110     304.950059      0.100130        18.739777      
188             322.257000      5746.963059     305.042040      0.100128        18.839905      
189             322.653000      5779.274498     305.135156      0.100143        18.940048      
190             322.410000      5811.562893     305.226018      0.100147        19.040195      
191             322.745000      5843.877736     305.317661      0.100125        19.140320      
192             322.745000      5876.188706     305.408340      0.100113        19.240433      
193             322.405000      5908.476922     305.496351      0.100148        19.340581      
194             322.747000      5940.808748     305.585243      0.100177        19.440758      
195             322.686000      5973.118652     305.672867      0.100128        19.540886      
196             322.472000      6005.409063     305.758513      0.100134        19.641020      
197             322.888000      6037.742745     305.845404      0.100139        19.741159      
198             322.574000      6070.050789     305.929848      0.100157        19.841316      
199             322.568000      6102.350168     306.013393      0.100132        19.941448      
200             322.759000      6134.671254     306.097064      0.100140        20.041588      
201             322.494000      6166.964513     306.178583      0.100136        20.141724      
202             322.699000      6199.267006     306.260281      0.100101        20.241825      
203             322.672000      6231.574862     306.341062      0.100126        20.341951      
204             322.498000      6263.873360     306.420218      0.100151        20.442102      
205             322.800000      6296.212755     306.500102      0.100184        20.542286      
206             322.670000      6328.527833     306.578552      0.100149        20.642435      
207             322.664000      6360.893936     306.656339      0.100309        20.742744      
